ECG_Raw,ECG_Clean,ECG_Rate,ECG_Quality,ECG_R_Peaks,ECG_P_Peaks,ECG_P_Onsets,ECG_P_Offsets,ECG_Q_Peaks,ECG_R_Onsets,ECG_R_Offsets,ECG_S_Peaks,ECG_T_Peaks,ECG_T_Onsets,ECG_T_Offsets,ECG_Phase_Atrial,ECG_Phase_Completion_Atrial,ECG_Phase_Ventricular,ECG_Phase_Completion_Ventricular
0.018045958879078138,0.017732868553462226,139.68957871396893,0.8452852863957259,0,0,0,0,0,0,0,0,0,0,0,,0.0,,0.0
0.018272740985900936,0.01851304612899077,139.68957871396893,0.8452852863957259,0,0,0,0,0,0,0,0,0,0,0,,0.0,,0.0
0.017954179008221473,0.01936275314395377,139.68957871396893,0.8452852863957259,0,0,0,0,0,0,0,0,0,0,0,,0.0,,0.0
0.017347904828428275,0.02029908669078734,139.68957871396893,0.8452852863957259,0,0,0,0,0,0,0,0,0,0,0,,0.0,,0.0
0.017531458003087193,0.021292199686134383,139.68957871396893,0.8452852863957259,0,0,0,0,0,0,0,0,0,0,0,,0.0,,0.0
0.019334572313850884,0.022313681825842716,139.68957871396893,0.8452852863957259,0,0,0,0,0,0,0,0,0,0,0,,0.0,,0.0
0.022219169851774925,0.0233695073334328,139.68957871396893,0.8452852863957259,0,0,0,0,0,0,0,0,0,0,0,,0.0,,0.0
0.024828248974872253,0.024496255679916635,139.68957871396893,0.8452852863957259,0,0,0,0,0,0,0,0,0,0,0,,0.0,,0.0
0.026950262410448362,0.025744330407876458,139.68957871396893,0.8452852863957259,0,0,0,0,0,0,0,0,0,0,0,,0.0,,0.0
0.029984274363297668,0.027160221857604194,139.68957871396893,0.8452852863957259,0,0,0,0,0,0,0,0,0,0,0,,0.0,,0.0
0.03437928965103558,0.028761096567317807,139.68957871396893,0.8452852863957259,0,0,0,0,0,0,0,0,0,0,0,,0.0,,0.0
0.03738716447910993,0.03052342812249391,139.68957871396893,0.8452852863957259,0,0,0,0,0,0,0,0,0,0,0,,0.0,,0.0
0.035422496480236036,0.03242431208735689,139.68957871396893,0.8452852863957259,0,0,0,0,0,0,0,0,0,0,0,,0.0,,0.0
0.02910036183759232,0.03451296143915309,139.68957871396893,0.8452852863957259,0,0,0,0,0,0,0,0,0,0,0,,0.0,,0.0
0.024014871061491038,0.03692210197386094,139.68957871396893,0.8452852863957259,0,0,0,0,0,0,0,0,0,0,0,,0.0,,0.0
0.025331813923515755,0.03977268115377842,139.68957871396893,0.8452852863957259,0,0,0,0,0,0,0,0,0,0,0,,0.0,,0.0
0.03295410830510533,0.04304607770989054,139.68957871396893,0.8452852863957259,0,0,0,0,0,0,0,0,0,0,0,,0.0,,0.0
0.043027711301199305,0.04654199814913355,139.68957871396893,0.8452852863957259,0,0,0,0,0,0,0,0,0,0,0,,0.0,,0.0
0.052526067247435054,0.049956272083228156,139.68957871396893,0.8452852863957259,0,0,0,0,0,0,0,0,0,0,0,,0.0,,0.0
0.060628705053844836,0.05300848629056643,139.68957871396893,0.8452852863957259,0,0,0,0,0,0,0,0,0,0,0,,0.0,,0.0
0.06683908742853892,0.055528718661765585,139.68957871396893,0.8452852863957259,0,0,0,0,0,0,0,0,0,0,0,,0.0,,0.0
0.07033757573539545,0.05746400939646536,139.68957871396893,0.8452852863957259,0,0,0,0,0,0,0,0,0,0,0,,0.0,,0.0
0.07164806446462729,0.05881966782214111,139.68957871396893,0.8452852863957259,0,0,0,0,0,0,0,0,0,0,0,,0.0,,0.0
0.07288261467313861,0.0595801950623446,139.68957871396893,0.8452852863957259,0,0,0,0,0,0,0,0,0,0,0,,0.0,,0.0
0.07462279258560645,0.059671719178996455,139.68957871396893,0.8452852863957259,0,0,0,0,0,0,0,0,0,0,0,,0.0,,0.0
0.07359140420215467,0.05901622062824757,139.68957871396893,0.8452852863957259,0,0,0,0,0,0,0,0,0,0,0,,0.0,,0.0
0.06592201392283926,0.05765474730982884,139.68957871396893,0.8452852863957259,0,0,0,0,0,0,0,0,0,0,0,,0.0,,0.0
0.05304307046464037,0.055827065114447606,139.68957871396893,0.8452852863957259,0,0,0,0,0,0,0,0,0,0,0,,0.0,,0.0
0.041876415961977956,0.05390708461377218,139.68957871396893,0.8452852863957259,0,0,0,0,0,0,0,0,0,0,0,,0.0,,0.0
0.03805543858721703,0.05223346169506196,139.68957871396893,0.8452852863957259,0,0,0,0,0,0,0,0,0,0,0,,0.0,,0.0
0.04078517862040897,0.05098568541961914,139.68957871396893,0.8452852863957259,0,0,0,0,0,0,0,0,0,0,0,,0.0,,0.0
0.04530518446682687,0.05019361873750683,139.68957871396893,0.8452852863957259,0,0,0,0,0,0,0,0,0,0,0,,0.0,,0.0
0.04834091429988928,0.049824250012308356,139.68957871396893,0.8452852863957259,0,0,0,0,0,0,0,0,0,0,0,,0.0,,0.0
0.04974492828107941,0.049849315075877934,139.68957871396893,0.8452852863957259,0,0,0,0,0,0,0,0,0,0,0,,0.0,,0.0
0.05050879393713544,0.050265010342247986,139.68957871396893,0.8452852863957259,0,0,0,0,0,0,0,0,0,0,0,,0.0,,0.0
0.051233838433239316,0.051079973090923096,139.68957871396893,0.8452852863957259,0,0,0,0,0,0,0,0,0,0,0,,0.0,,0.0
0.05224932742920661,0.05228042823964034,139.68957871396893,0.8452852863957259,0,0,0,0,0,0,0,0,0,0,0,,0.0,,0.0
0.05380887026398339,0.053793283070860176,139.68957871396893,0.8452852863957259,0,0,0,0,0,0,0,0,0,0,0,,0.0,,0.0
0.055842770335219206,0.055494278743583265,139.68957871396893,0.8452852863957259,0,0,0,0,0,0,0,0,0,0,0,,0.0,,0.0
0.0580470609241886,0.05727303158543407,139.68957871396893,0.8452852863957259,0,0,0,0,0,0,0,0,0,0,0,,0.0,,0.0
0.06028243135607023,0.059093091843254224,139.68957871396893,0.8452852863957259,0,0,0,0,0,0,0,0,0,0,0,,0.0,,0.0
0.06252276955479943,0.0609840660500061,139.68957871396893,0.8452852863957259,0,0,0,0,0,0,0,0,0,0,0,,0.0,,0.0
0.06445730285337731,0.06298374448199606,139.68957871396893,0.8452852863957259,0,0,0,0,0,0,0,0,0,0,0,,0.0,,0.0
0.0656504019098671,0.06509870252393134,139.68957871396893,0.8452852863957259,0,0,0,0,0,0,0,0,0,0,0,,0.0,,0.0
0.06630166388371138,0.06731045227002726,139.68957871396893,0.8452852863957259,0,0,0,0,0,0,0,0,0,0,0,,0.0,,0.0
0.06740561438238267,0.06958709464303639,139.68957871396893,0.8452852863957259,0,0,0,0,0,0,0,0,0,0,0,,0.0,,0.0
0.06979669297572726,0.07186108233419607,139.68957871396893,0.8452852863957259,0,0,0,0,0,0,0,0,0,0,0,,0.0,,0.0
0.07336882080747205,0.07399868439809061,139.68957871396893,0.8452852863957259,0,0,0,0,0,0,0,0,0,0,0,,0.0,,0.0
0.07756489174796975,0.07581720946480983,139.68957871396893,0.8452852863957259,0,0,0,0,0,0,0,0,0,0,0,,0.0,,0.0
0.08214945924781417,0.07714894004189152,139.68957871396893,0.8452852863957259,0,0,0,0,0,0,0,0,0,0,0,,0.0,,0.0
0.0868510983687065,0.07788904181700024,139.68957871396893,0.8452852863957259,0,0,0,0,0,0,0,0,0,0,0,,0.0,,0.0
0.09059078227657873,0.07799199905074877,139.68957871396893,0.8452852863957259,0,0,0,0,0,0,0,0,0,0,0,,0.0,,0.0
0.09208164397067026,0.07744790518651823,139.68957871396893,0.8452852863957259,0,0,0,0,0,0,0,0,0,0,0,,0.0,,0.0
0.09121502471729583,0.07627280067466514,139.68957871396893,0.8452852863957259,0,0,0,0,0,0,0,0,0,0,0,,0.0,,0.0
0.0885637632124109,0.0745074262541702,139.68957871396893,0.8452852863957259,0,0,0,0,0,0,0,0,0,0,0,,0.0,,0.0
0.08329187750141431,0.07222353284580353,139.68957871396893,0.8452852863957259,0,0,0,0,0,0,0,0,0,0,0,,0.0,,0.0
0.07368544055123177,0.06955847994270435,139.68957871396893,0.8452852863957259,0,0,0,0,0,0,0,0,0,0,0,,0.0,,0.0
0.06100100652703346,0.0667531888821584,139.68957871396893,0.8452852863957259,0,0,0,0,0,0,0,0,0,0,0,,0.0,,0.0
0.0505874899668852,0.06411737233865634,139.68957871396893,0.8452852863957259,0,0,0,0,0,0,0,0,0,0,0,,0.0,,0.0
0.047068894759325214,0.06191502025395178,139.68957871396893,0.8452852863957259,0,0,0,0,0,0,0,0,0,0,0,,0.0,,0.0
0.04968522098541794,0.060278702765115905,139.68957871396893,0.8452852863957259,0,0,0,0,0,0,0,0,0,0,0,,0.0,,0.0
0.053933588035758144,0.05923641708279994,139.68957871396893,0.8452852863957259,0,0,0,0,0,0,0,0,0,0,0,,0.0,,0.0
0.056584816997192394,0.058797837437405395,139.68957871396893,0.8452852863957259,0,0,0,0,0,0,0,0,0,0,0,,0.0,,0.0
0.057732547909731716,0.058999815019388516,139.68957871396893,0.8452852863957259,0,0,0,0,0,0,0,0,0,0,0,,0.0,,0.0
0.058953850322951244,0.05989284219739298,139.68957871396893,0.8452852863957259,0,0,0,0,0,0,0,0,0,0,0,,0.0,,0.0
0.06104207377866794,0.06151138617688301,139.68957871396893,0.8452852863957259,0,0,0,0,0,0,0,0,0,0,0,,0.0,,0.0
0.06353025181912432,0.06384853667833992,139.68957871396893,0.8452852863957259,0,0,0,0,0,0,0,0,0,0,0,,0.0,,0.0
0.06556052093723494,0.0668366620368211,139.68957871396893,0.8452852863957259,0,0,0,0,0,0,0,0,0,0,0,,0.0,,0.0
0.06693640934500397,0.07035883167224222,139.68957871396893,0.8452852863957259,0,0,0,0,0,0,0,0,0,0,0,,0.0,,0.0
0.06857166417477929,0.07431058741047743,139.68957871396893,0.8452852863957259,0,0,0,0,0,0,0,0,0,0,0,,0.0,,0.0
0.0719023983535781,0.07867776410002596,139.68957871396893,0.8452852863957259,0,0,0,0,0,0,0,0,0,0,0,,0.0,,0.0
0.07762687211401353,0.08356944925944956,139.68957871396893,0.8452852863957259,0,0,0,0,0,0,0,0,0,0,0,,0.0,,0.0
0.08512358866127266,0.08918414561060241,139.68957871396893,0.8452852863957259,0,0,0,0,0,0,0,0,0,0,0,,0.0,,0.0
0.09333490862258105,0.09573774097266453,139.68957871396893,0.8452852863957259,0,0,0,0,0,0,0,0,0,0,0,,0.0,,0.0
0.10187549826466626,0.10338848725247787,139.68957871396893,0.8452852863957259,0,0,0,0,0,0,0,0,0,0,0,,0.0,,0.0
0.11063280644560758,0.1121716556973692,139.68957871396893,0.8452852863957259,0,0,0,0,0,0,0,0,0,0,0,,0.0,,0.0
0.11845243723899865,0.12195652076533572,139.68957871396893,0.8452852863957259,0,0,0,0,0,0,0,0,0,0,0,,0.0,,0.0
0.12350435649384651,0.13245957826011817,139.68957871396893,0.8452852863957259,0,0,0,0,0,0,0,0,0,0,0,,0.0,,0.0
0.126223838206193,0.14332531959133366,139.68957871396893,0.8452852863957259,0,0,0,0,0,0,0,0,0,0,0,,0.0,,0.0
0.13159643441889093,0.15420861637519334,139.68957871396893,0.8452852863957259,0,0,0,0,0,0,0,0,0,0,0,,0.0,,0.0
0.14655033564868317,0.16476062402587419,139.68957871396893,0.8452852863957259,0,0,0,0,0,0,0,0,0,0,0,,0.0,,0.0
0.17360119629314505,0.17450852397684127,139.68957871396893,0.8452852863957259,0,0,0,0,0,0,0,0,0,0,0,,0.0,,0.0
0.20753219107910817,0.18274956550713672,139.68957871396893,0.8452852863957259,0,0,0,0,0,0,0,0,0,0,0,,0.0,,0.0
0.23863230025451942,0.18860101692233905,139.68957871396893,0.8452852863957259,0,0,0,0,0,0,0,0,0,0,0,,0.0,,0.0
0.25801931208542167,0.19122591241314874,139.68957871396893,0.8452852863957259,0,0,0,0,0,0,0,0,0,0,0,,0.0,,0.0
0.2603731617645584,0.19010997467833285,139.68957871396893,0.8452852863957259,0,0,0,0,0,0,0,0,0,0,0,,0.0,,0.0
0.24517383740398271,0.1852229403966922,139.68957871396893,0.8452852863957259,0,0,0,0,0,0,0,0,0,0,0,,0.0,,0.0
0.2176965602218471,0.1769762689142394,139.68957871396893,0.8452852863957259,0,0,0,0,0,0,0,0,0,0,0,,0.0,,0.0
0.1872468100697446,0.16602318440295036,139.68957871396893,0.8452852863957259,0,0,0,0,0,0,0,0,0,0,0,,0.0,,0.0
0.16147230303789503,0.1530402979271847,139.68957871396893,0.8452852863957259,0,0,0,0,0,0,0,0,0,0,0,,0.0,,0.0
0.1407675293646707,0.1386212137368174,139.68957871396893,0.8452852863957259,0,0,0,0,0,0,0,0,0,0,0,,0.0,,0.0
0.11886972024112821,0.12332502692413284,139.68957871396893,0.8452852863957259,0,0,0,0,0,0,0,0,0,0,0,,0.0,,0.0
0.09096184001128368,0.1078137246698733,139.68957871396893,0.8452852863957259,0,0,0,0,0,0,0,0,0,0,0,,0.0,,0.0
0.061254174401918285,0.09292623385151545,139.68957871396893,0.8452852863957259,0,0,0,0,0,0,0,0,0,0,0,,0.0,,0.0
0.040059895972383734,0.07954974286921117,139.68957871396893,0.8452852863957259,0,0,0,0,0,0,0,0,0,0,0,,0.0,,0.0
0.032983973446292815,0.06831577123851473,139.68957871396893,0.8452852863957259,0,0,0,0,0,0,0,0,0,0,0,,0.0,,0.0
0.03591164769142483,0.059343888014336245,139.68957871396893,0.8452852863957259,0,0,0,0,0,0,0,0,0,0,0,,0.0,,0.0
0.041227611169659895,0.05225049306528602,139.68957871396893,0.8452852863957259,0,0,0,0,0,0,0,0,0,0,0,,0.0,,0.0
0.04526975622956918,0.04641018793155002,139.68957871396893,0.8452852863957259,0,0,0,0,0,0,0,0,0,0,0,,0.0,,0.0
0.047708592321253546,0.04125608144797558,139.68957871396893,0.8452852863957259,0,0,0,0,0,0,0,0,0,0,0,,0.0,,0.0
0.04725467509346397,0.03643469759326807,139.68957871396893,0.8452852863957259,0,0,0,0,0,0,0,0,0,0,0,,0.0,,0.0
0.04260693713485066,0.03179108890210788,139.68957871396893,0.8452852863957259,0,0,0,0,0,0,0,0,0,0,0,,0.0,,0.0
0.036752893233539245,0.027250674041769358,139.68957871396893,0.8452852863957259,0,0,0,0,0,0,0,0,0,0,0,,0.0,,0.0
0.03495631718843461,0.02268223653005406,139.68957871396893,0.8452852863957259,0,0,0,0,0,0,0,0,0,0,0,,0.0,,0.0
0.0363327251241149,0.017855441297711546,139.68957871396893,0.8452852863957259,0,0,0,0,0,0,0,0,0,0,0,,0.0,,0.0
0.03178396168954767,0.012575832130909246,139.68957871396893,0.8452852863957259,0,0,0,0,0,0,0,0,0,0,0,,0.0,,0.0
0.014478647941809452,0.006910416136947114,139.68957871396893,0.8452852863957259,0,0,0,0,0,0,0,0,0,0,0,,0.0,,0.0
-0.009951966626874274,0.0012756971351234065,139.68957871396893,0.8452852863957259,0,0,0,0,0,0,0,0,0,0,0,,0.0,,0.0
-0.028107014863320505,-0.003730057764464929,139.68957871396893,0.8452852863957259,0,0,0,0,0,0,0,0,0,0,0,,0.0,,0.0
-0.03280240903886615,-0.007613311133149224,139.68957871396893,0.8452852863957259,0,0,0,0,0,0,0,0,0,0,0,,0.0,,0.0
-0.02850018688369436,-0.010177442256337316,139.68957871396893,0.8452852863957259,0,0,0,0,0,0,0,0,0,0,0,,0.0,,0.0
-0.023355956750717038,-0.011569609849527103,139.68957871396893,0.8452852863957259,0,0,0,0,0,0,0,0,0,0,0,,0.0,,0.0
-0.020277781615452097,-0.012259784328755853,139.68957871396893,0.8452852863957259,0,0,0,0,0,0,0,0,0,0,0,,0.0,,0.0
-0.017196743365909456,-0.012984145183772187,139.68957871396893,0.8452852863957259,0,0,0,0,0,0,0,0,0,0,0,,0.0,,0.0
-0.012695238066440318,-0.014641140512769555,139.68957871396893,0.8452852863957259,0,0,0,0,0,0,0,0,0,0,0,,0.0,,0.0
-0.008016098572440438,-0.01820566695795996,139.68957871396893,0.8452852863957259,0,0,0,0,0,0,0,0,0,0,0,,0.0,,0.0
-0.0039039845521693217,-0.024770046713741417,139.68957871396893,0.8452852863957259,0,0,0,0,0,0,0,0,0,0,0,,0.0,,0.0
0.0017455683957354187,-0.035687648531147434,139.68957871396893,0.8452852863957259,0,0,0,0,0,0,0,0,0,0,0,,0.0,,0.0
0.010747105005093356,-0.05261579370133555,139.68957871396893,0.8452852863957259,0,0,0,0,0,0,0,0,0,0,0,,0.0,,0.0
0.018579588016995954,-0.07726459560980195,139.68957871396893,0.8452852863957259,0,0,0,0,0,0,0,0,0,0,0,,0.0,,0.0
0.012922114719625878,-0.11089587847722206,139.68957871396893,0.8452852863957259,0,0,0,0,0,0,0,0,0,0,0,,0.0,,0.0
-0.01913869122779858,-0.1538594316552954,139.68957871396893,0.8452852863957259,0,0,0,0,0,0,0,0,0,0,0,,0.0,,0.0
-0.08074620788304622,-0.2054380958301269,139.68957871396893,0.8452852863957259,0,0,0,0,0,0,0,0,0,0,0,,0.0,,0.0
-0.1626323262958299,-0.2639982015655303,139.68957871396893,0.8452852863957259,0,0,0,0,0,0,0,0,0,0,0,,0.0,,0.0
-0.2524953482782788,-0.32721081392804346,139.68957871396893,0.8452852863957259,0,0,0,0,0,0,0,0,0,0,0,,0.0,,0.0
-0.3478204850084008,-0.3921484311674358,139.68957871396893,0.8452852863957259,0,0,0,0,0,0,0,0,0,0,0,,0.0,,0.0
-0.45762777732627896,-0.4552514407836005,139.68957871396893,0.8452852863957259,0,0,0,0,0,0,0,0,0,0,0,,0.0,,0.0
-0.5876301442718421,-0.5123079568988381,139.68957871396893,0.8452852863957259,0,0,0,0,0,0,0,0,0,0,0,,0.0,,0.0
-0.7224833189536868,-0.5586820638742808,139.68957871396893,0.8452852863957259,0,0,0,0,0,0,0,0,0,0,0,,0.0,,0.0
-0.8283053377039982,-0.5899769092153409,139.68957871396893,0.8452852863957259,0,0,0,0,0,0,0,0,0,0,0,,0.0,,0.0
-0.878901397802378,-0.6029690009157611,139.68957871396893,0.8452852863957259,0,0,0,0,0,0,0,0,0,0,0,,0.0,,0.0
-0.8764512639172862,-0.596252661156762,139.68957871396893,0.8452852863957259,0,0,0,0,0,0,0,0,0,0,0,,0.0,,0.0
-0.8393774835208454,-0.5701730959785581,139.68957871396893,0.8452852863957259,0,0,0,0,0,0,0,0,0,0,0,,0.0,,0.0
-0.7733372193277381,-0.5262891347115216,139.68957871396893,0.8452852863957259,0,0,0,0,0,0,0,0,0,0,0,,0.0,,0.0
-0.6648145469504071,-0.46699308532122863,139.68957871396893,0.8452852863957259,0,0,0,0,0,0,0,0,0,0,0,,0.0,,0.0
-0.5041826625805207,-0.395560913435751,139.68957871396893,0.8452852863957259,0,0,0,0,0,0,0,0,0,0,0,,0.0,,0.0
-0.3067207254602272,-0.3163257777068253,139.68957871396893,0.8452852863957259,0,0,0,0,0,0,0,0,0,0,0,,0.0,,0.0
-0.10878339971499093,-0.2345219141892571,139.68957871396893,0.8452852863957259,0,0,0,0,0,0,0,0,0,0,0,,0.0,,0.0
0.05219401315733274,-0.15562574713078428,139.68957871396893,0.8452852863957259,0,0,0,0,0,0,0,0,0,0,0,,0.0,,0.0
0.15506674334435336,-0.08438707288993635,139.68957871396893,0.8452852863957259,0,0,0,0,0,0,0,0,0,0,0,,0.0,,0.0
0.2000999290819835,-0.024003554176512433,139.68957871396893,0.8452852863957259,0,0,0,0,0,0,0,0,0,0,0,,0.0,,0.0
0.2025404502203935,0.024121320053669022,139.68957871396893,0.8452852863957259,0,0,0,0,0,0,0,0,0,0,0,,0.0,,0.0
0.18241264675477303,0.059984941966430005,139.68957871396893,0.8452852863957259,0,0,0,0,0,0,0,0,0,0,0,,0.0,,0.0
0.1571485497986965,0.08436163535395091,139.68957871396893,0.8452852863957259,0,0,0,0,0,0,0,0,0,0,0,,0.0,,0.0
0.1364604072082355,0.09841280908751145,139.68957871396893,0.8452852863957259,0,0,0,0,0,0,0,0,0,0,0,,0.0,,0.0
0.11973350165891429,0.10365097953051375,139.68957871396893,0.8452852863957259,0,0,0,0,0,0,0,0,0,0,0,,0.0,,0.0
0.10104111756401779,0.10202882239935102,139.68957871396893,0.8452852863957259,0,0,0,0,0,0,0,0,0,0,0,,0.0,,0.0
0.0792757667239889,0.09585729857315572,139.68957871396893,0.8452852863957259,0,0,0,0,0,0,0,0,0,0,0,,0.0,,0.0
0.06110418746356702,0.08744925833729839,139.68957871396893,0.8452852863957259,0,0,0,0,0,0,0,0,0,0,0,,0.0,,0.0
0.05290545244011102,0.07865360120583775,139.68957871396893,0.8452852863957259,0,0,0,0,0,0,0,0,0,0,0,,0.0,,0.0
0.05321904592779314,0.07057027128360585,139.68957871396893,0.8452852863957259,0,0,0,0,0,0,0,0,0,0,0,,0.0,,0.0
0.05538922905909341,0.06359816607445228,139.68957871396893,0.8452852863957259,0,0,0,0,0,0,0,0,0,0,0,,0.0,,0.0
0.055492279765955554,0.0577032987167924,139.68957871396893,0.8452852863957259,0,0,0,0,0,0,0,0,0,0,0,,0.0,,0.0
0.055064768261947616,0.05268061288294321,139.68957871396893,0.8452852863957259,0,0,0,0,0,0,0,0,0,0,0,,0.0,,0.0
0.0564175071715615,0.048293048360679366,139.68957871396893,0.8452852863957259,0,0,0,0,0,0,0,0,0,0,0,,0.0,,0.0
0.05759944412196241,0.04432019040072028,139.68957871396893,0.8452852863957259,0,0,0,0,0,0,0,0,0,0,0,,0.0,,0.0
0.053848888154218844,0.04058677013697678,139.68957871396893,0.8452852863957259,0,0,0,0,0,0,0,0,0,0,0,,0.0,,0.0
0.04366595134208798,0.036996062196301305,139.68957871396893,0.8452852863957259,0,0,0,0,0,0,0,0,0,0,0,,0.0,,0.0
0.031235394075400682,0.03354787142145378,139.68957871396893,0.8452852863957259,0,0,0,0,0,0,0,0,0,0,0,,0.0,,0.0
0.02195966768723572,0.03032036623527524,139.68957871396893,0.8452852863957259,0,0,0,0,0,0,0,0,0,0,0,,0.0,,0.0
0.017443483311876704,0.027427309410685857,139.68957871396893,0.8452852863957259,0,0,0,0,0,0,0,0,0,0,0,,0.0,,0.0
0.015944706916337575,0.02497544217645259,139.68957871396893,0.8452852863957259,0,0,0,0,0,0,0,0,0,0,0,,0.0,,0.0
0.01577304430027703,0.02303194716014475,139.68957871396893,0.8452852863957259,0,0,0,0,0,0,0,0,0,0,0,,0.0,,0.0
0.01647616293020062,0.02161127647345254,139.68957871396893,0.8452852863957259,0,0,0,0,0,0,0,0,0,0,0,,0.0,,0.0
0.017828374945049474,0.020696440884758326,139.68957871396893,0.8452852863957259,0,0,0,0,0,0,0,0,0,0,0,,0.0,,0.0
0.019392334945584188,0.020277451749012847,139.68957871396893,0.8452852863957259,0,0,0,0,0,0,0,0,0,0,0,,0.0,,0.0
0.02091113757293333,0.020356092406381726,139.68957871396893,0.8452852863957259,0,0,0,0,0,0,0,0,0,0,0,,0.0,,0.0
0.022291167467991504,0.020907119748339784,139.68957871396893,0.8452852863957259,0,0,0,0,0,0,0,0,0,0,0,,0.0,,0.0
0.02341854350024816,0.021855736002588045,139.68957871396893,0.8452852863957259,0,0,0,0,0,0,0,0,0,0,0,,0.0,,0.0
0.02444217267548052,0.02311180883784966,139.68957871396893,0.8452852863957259,0,0,0,0,0,0,0,0,0,0,0,,0.0,,0.0
0.02577040356199958,0.024616398272620365,139.68957871396893,0.8452852863957259,0,0,0,0,0,0,0,0,0,0,0,,0.0,,0.0
0.027321001254032102,0.02634687142856408,139.68957871396893,0.8452852863957259,0,0,0,0,0,0,0,0,0,0,0,,0.0,,0.0
0.02831990794790112,0.02830206143239877,139.68957871396893,0.8452852863957259,0,0,0,0,0,0,0,0,0,0,0,,0.0,,0.0
0.02845480561724252,0.0305110069007187,139.68957871396893,0.8452852863957259,0,0,0,0,0,0,0,0,0,0,0,,0.0,,0.0
0.02880769890011253,0.03304519479912614,139.68957871396893,0.8452852863957259,0,0,0,0,0,0,0,0,0,0,0,,0.0,,0.0
0.030932089232530765,0.035987859358423746,139.68957871396893,0.8452852863957259,0,0,0,0,0,0,0,0,0,0,0,,0.0,,0.0
0.03519601346210448,0.039378835927139824,139.68957871396893,0.8452852863957259,0,0,0,0,0,0,0,0,0,0,0,,0.0,,0.0
0.040659307285527975,0.043204691279775484,139.68957871396893,0.8452852863957259,0,0,0,0,0,0,0,0,0,0,0,,0.0,,0.0
0.04633145852847552,0.04745653029857789,139.68957871396893,0.8452852863957259,0,0,0,0,0,0,0,0,0,0,0,,0.0,,0.0
0.05176052074137776,0.05220134675769086,139.68957871396893,0.8452852863957259,0,0,0,0,0,0,0,0,0,0,0,,0.0,,0.0
0.05666995526301221,0.057610207931138364,139.68957871396893,0.8452852863957259,0,0,0,0,0,0,0,0,0,0,0,,0.0,,0.0
0.06115331650026333,0.06393638091734012,139.68957871396893,0.8452852863957259,0,0,0,0,0,0,0,0,0,0,0,,0.0,,0.0
0.06622673152517362,0.07145792904215505,139.68957871396893,0.8452852863957259,0,0,0,0,0,0,0,0,0,0,0,,0.0,,0.0
0.07294218272848142,0.08039438447266481,139.68957871396893,0.8452852863957259,0,0,0,0,0,0,0,0,0,0,0,,0.0,,0.0
0.08061925886337654,0.09081822920022778,139.68957871396893,0.8452852863957259,0,0,0,0,0,0,0,0,0,0,0,,0.0,,0.0
0.08728769345041515,0.10259476514465209,139.68957871396893,0.8452852863957259,0,0,0,0,0,0,0,0,0,0,0,,0.0,,0.0
0.09295349636512766,0.11537437068150809,139.68957871396893,0.8452852863957259,0,0,0,0,0,0,0,0,0,0,0,,0.0,,0.0
0.10161062253403333,0.12864037904795858,139.68957871396893,0.8452852863957259,0,0,0,0,0,0,0,0,0,0,0,,0.0,,0.0
0.11852700715073064,0.14178432965972484,139.68957871396893,0.8452852863957259,0,0,0,0,0,0,0,0,0,0,0,,0.0,,0.0
0.14546831110530012,0.15414653222306673,139.68957871396893,0.8452852863957259,0,0,0,0,0,0,0,0,0,0,0,,0.0,,0.0
0.17928574095517733,0.16498343302203852,139.68957871396893,0.8452852863957259,0,0,0,0,0,0,0,0,0,0,0,,0.0,,0.0
0.21450828072085018,0.1734183793968426,139.68957871396893,0.8452852863957259,0,0,0,0,0,0,0,0,0,0,0,,0.0,,0.0
0.2456095037250133,0.17848657128177306,139.68957871396893,0.8452852863957259,0,0,0,0,0,0,0,0,0,0,0,,0.0,,0.0
0.2661537910774505,0.17931009923389757,139.68957871396893,0.8452852863957259,0,0,0,0,0,0,0,0,0,0,0,,0.0,,0.0
0.2676853260603369,0.17532907887294702,139.68957871396893,0.8452852863957259,0,0,0,0,0,0,0,0,0,0,0,,0.0,,0.0
0.24393572700648827,0.16649096211484088,139.68957871396893,0.8452852863957259,0,0,0,0,0,0,0,0,0,0,0,,0.0,,0.0
0.19933681739888967,0.15331390035752013,139.68957871396893,0.8452852863957259,0,0,0,0,0,0,0,0,0,0,0,,0.0,,0.0
0.1503418030869235,0.1367457850304053,139.68957871396893,0.8452852863957259,0,0,0,0,0,0,0,0,0,0,0,,0.0,,0.0
0.11253347782656208,0.11785104811786486,139.68957871396893,0.8452852863957259,0,0,0,0,0,0,0,0,0,0,0,,0.0,,0.0
0.08663173856954215,0.09755133836711688,139.68957871396893,0.8452852863957259,0,0,0,0,0,0,0,0,0,0,0,,0.0,,0.0
0.06169198492369592,0.07663292870521053,139.68957871396893,0.8452852863957259,0,0,0,0,0,0,0,0,0,0,0,,0.0,,0.0
0.03117378431384219,0.05593325685017765,139.68957871396893,0.8452852863957259,0,0,0,0,0,0,0,0,0,0,0,,0.0,,0.0
0.0005119591778475587,0.036413751315126294,139.68957871396893,0.8452852863957259,0,0,0,0,0,0,0,0,0,0,0,,0.0,,0.0
-0.021103266670163823,0.018995943180368187,139.68957871396893,0.8452852863957259,0,0,0,0,0,0,0,0,0,0,0,,0.0,,0.0
-0.030971992070199718,0.004317335878900174,139.68957871396893,0.8452852863957259,0,0,0,0,0,0,0,0,0,0,0,,0.0,,0.0
-0.03332439529764624,-0.007405396159529217,139.68957871396893,0.8452852863957259,0,0,0,0,0,0,0,0,0,0,0,,0.0,,0.0
-0.03339878431998024,-0.016361300746971,139.68957871396893,0.8452852863957259,0,0,0,0,0,0,0,0,0,0,0,,0.0,,0.0
-0.033602650021920144,-0.023007641811659783,139.68957871396893,0.8452852863957259,0,0,0,0,0,0,0,0,0,0,0,,0.0,,0.0
-0.03397071929872101,-0.027859730415254857,139.68957871396893,0.8452852863957259,0,0,0,0,0,0,0,0,0,0,0,,0.0,,0.0
-0.03408811744267884,-0.03132004214434236,139.68957871396893,0.8452852863957259,0,0,0,0,0,0,0,0,0,0,0,,0.0,,0.0
-0.03404119068423762,-0.033659472611928754,139.68957871396893,0.8452852863957259,0,0,0,0,0,0,0,0,0,0,0,,0.0,,0.0
-0.034157187788757835,-0.03511878077555521,139.68957871396893,0.8452852863957259,0,0,0,0,0,0,0,0,0,0,0,,0.0,,0.0
-0.03442885999433931,-0.0359781983614301,139.68957871396893,0.8452852863957259,0,0,0,0,0,0,0,0,0,0,0,,0.0,,0.0
-0.03445316223827386,-0.03651647437931428,139.68957871396893,0.8452852863957259,0,0,0,0,0,0,0,0,0,0,0,,0.0,,0.0
-0.0340546110800229,-0.03693028334271593,139.68957871396893,0.8452852863957259,0,0,0,0,0,0,0,0,0,0,0,,0.0,,0.0
-0.03391450526224479,-0.0373068274109495,139.68957871396893,0.8452852863957259,0,0,0,0,0,0,0,0,0,0,0,,0.0,,0.0
-0.03519067164524847,-0.03765163820686378,139.68957871396893,0.8452852863957259,0,0,0,0,0,0,0,0,0,0,0,,0.0,,0.0
-0.03813439957595153,-0.03792245697193041,139.68957871396893,0.8452852863957259,0,0,0,0,0,0,0,0,0,0,0,,0.0,,0.0
-0.04130967575506136,-0.038049877520558516,139.68957871396893,0.8452852863957259,0,0,0,0,0,0,0,0,0,0,0,,0.0,,0.0
-0.04273219787228317,-0.03795751297628317,139.68957871396893,0.8452852863957259,0,0,0,0,0,0,0,0,0,0,0,,0.0,,0.0
-0.0417743898118234,-0.03758701083832627,139.68957871396893,0.8452852863957259,0,0,0,0,0,0,0,0,0,0,0,,0.0,,0.0
-0.03951125894654356,-0.03692134613961138,139.68957871396893,0.8452852863957259,0,0,0,0,0,0,0,0,0,0,0,,0.0,,0.0
-0.03726758168312249,-0.036003468592407516,139.68957871396893,0.8452852863957259,0,0,0,0,0,0,0,0,0,0,0,,0.0,,0.0
-0.035368313733862775,-0.034941906184396174,139.68957871396893,0.8452852863957259,0,0,0,0,0,0,0,0,0,0,0,,0.0,,0.0
-0.033422603587701605,-0.033883913135389764,139.68957871396893,0.8452852863957259,0,0,0,0,0,0,0,0,0,0,0,,0.0,,0.0
-0.03134305223152623,-0.03295848384358949,139.68957871396893,0.8452852863957259,0,0,0,0,0,0,0,0,0,0,0,,0.0,,0.0
-0.02959502093148995,-0.032231439472872714,139.68957871396893,0.8452852863957259,0,0,0,0,0,0,0,0,0,0,0,,0.0,,0.0
-0.028337892932361698,-0.03171025079327941,139.68957871396893,0.8452852863957259,0,0,0,0,0,0,0,0,0,0,0,,0.0,,0.0
-0.026681588363349353,-0.03138670229448535,139.68957871396893,0.8452852863957259,0,0,0,0,0,0,0,0,0,0,0,,0.0,,0.0
-0.023573883971880587,-0.03127645970124917,139.68957871396893,0.8452852863957259,0,0,0,0,0,0,0,0,0,0,0,,0.0,,0.0
-0.02000259710164702,-0.03142631565212633,139.68957871396893,0.8452852863957259,0,0,0,0,0,0,0,0,0,0,0,,0.0,,0.0
-0.01965520830164697,-0.0318767066125044,139.68957871396893,0.8452852863957259,0,0,0,0,0,0,0,0,0,0,0,,0.0,,0.0
-0.0257488787581216,-0.032589340393066726,139.68957871396893,0.8452852863957259,0,0,0,0,0,0,0,0,0,0,0,,0.0,,0.0
-0.03665136063451945,-0.03339661227281886,139.68957871396893,0.8452852863957259,0,0,0,0,0,0,0,0,0,0,0,,0.0,,0.0
-0.04605782897935699,-0.034044969379055504,139.68957871396893,0.8452852863957259,0,0,0,0,0,0,0,0,0,0,0,,0.0,,0.0
-0.04862084575681293,-0.034323389768633104,139.68957871396893,0.8452852863957259,0,0,0,0,0,0,0,0,0,0,0,,0.0,,0.0
-0.044595590691879176,-0.03416702549745301,139.68957871396893,0.8452852863957259,0,0,0,0,0,0,0,0,0,0,0,,0.0,,0.0
-0.03831595227886017,-0.03364540207783223,139.68957871396893,0.8452852863957259,0,0,0,0,0,0,0,0,0,0,0,,0.0,,0.0
-0.03339453562454859,-0.03286595070550578,139.68957871396893,0.8452852863957259,0,0,0,0,0,0,0,0,0,0,0,,0.0,,0.0
-0.030435764409889467,-0.03189197740857044,139.68957871396893,0.8452852863957259,0,0,0,0,0,0,0,0,0,0,0,,0.0,,0.0
-0.02829454074600336,-0.03073096999182781,139.68957871396893,0.8452852863957259,0,0,0,0,0,0,0,0,0,0,0,,0.0,,0.0
-0.026033570208821234,-0.029379683811880025,139.68957871396893,0.8452852863957259,0,0,0,0,0,0,0,0,0,0,0,,0.0,,0.0
-0.02370401107123474,-0.027881854033122565,139.68957871396893,0.8452852863957259,0,0,0,0,0,0,0,0,0,0,0,,0.0,,0.0
-0.022052849948999875,-0.02635024865770802,139.68957871396893,0.8452852863957259,0,0,0,0,0,0,0,0,0,0,0,,0.0,,0.0
-0.02170919658194247,-0.024924464614223818,139.68957871396893,0.8452852863957259,0,0,0,0,0,0,0,0,0,0,0,,0.0,,0.0
-0.022429880864348738,-0.02369178092555134,139.68957871396893,0.8452852863957259,0,0,0,0,0,0,0,0,0,0,0,,0.0,,0.0
-0.023079846721628168,-0.022643239386041566,139.68957871396893,0.8452852863957259,0,0,0,0,0,0,0,0,0,0,0,,0.0,,0.0
-0.022520710602385592,-0.021705210856443752,139.68957871396893,0.8452852863957259,0,0,0,0,0,0,0,0,0,0,0,,0.0,,0.0
-0.020664677489908315,-0.02080759781583876,139.68957871396893,0.8452852863957259,0,0,0,0,0,0,0,0,0,0,0,,0.0,,0.0
-0.018603512437516338,-0.019920072988878677,139.68957871396893,0.8452852863957259,0,0,0,0,0,0,0,0,0,0,0,,0.0,,0.0
-0.01756777983790473,-0.019035002107339223,139.68957871396893,0.8452852863957259,0,0,0,0,0,0,0,0,0,0,0,,0.0,,0.0
-0.017766635897796094,-0.018132220429440956,139.68957871396893,0.8452852863957259,0,0,0,0,0,0,0,0,0,0,0,,0.0,,0.0
-0.018290538977705308,-0.017166553921803357,139.68957871396893,0.8452852863957259,0,0,0,0,0,0,0,0,0,0,0,,0.0,,0.0
-0.01804531901808221,-0.0160859820077069,139.68957871396893,0.8452852863957259,0,0,0,0,0,0,0,0,0,0,0,,0.0,,0.0
-0.016679337240594606,-0.014859808717821908,139.68957871396893,0.8452852863957259,0,0,0,0,0,0,0,0,0,0,0,,0.0,,0.0
-0.014661759191838368,-0.01349223277014731,139.68957871396893,0.8452852863957259,0,0,0,0,0,0,0,0,0,0,0,,0.0,,0.0
-0.012623922495161673,-0.012011993328873087,139.68957871396893,0.8452852863957259,0,0,0,0,0,0,0,0,0,0,0,,0.0,,0.0
-0.010775426751464845,-0.010448578176201755,139.68957871396893,0.8452852863957259,0,0,0,0,0,0,0,0,0,0,0,,0.0,,0.0
-0.008951939549166612,-0.00881462926894755,139.68957871396893,0.8452852863957259,0,0,0,0,0,0,0,0,0,0,0,,0.0,,0.0
-0.007024843473898232,-0.007107131954173385,139.68957871396893,0.8452852863957259,0,0,0,0,0,0,0,0,0,0,0,,0.0,,0.0
-0.005078017136744823,-0.005323806400379959,139.68957871396893,0.8452852863957259,0,0,0,0,0,0,0,0,0,0,0,,0.0,,0.0
-0.003219185575349087,-0.0034785599689527063,139.68957871396893,0.8452852863957259,0,0,0,0,0,0,0,0,0,0,0,,0.0,,0.0
-0.0013943820687780007,-0.0016017582855952306,139.68957871396893,0.8452852863957259,0,0,0,0,0,0,0,0,0,0,0,,0.0,,0.0
0.0005146050401979953,0.00027332687406310093,139.68957871396893,0.8452852863957259,0,0,0,0,0,0,0,0,0,0,0,,0.0,,0.0
0.0024831550494440985,0.002123523262921876,139.68957871396893,0.8452852863957259,0,0,0,0,0,0,0,0,0,0,0,,0.0,,0.0
0.004365190869049823,0.003938022763684124,139.68957871396893,0.8452852863957259,0,0,0,0,0,0,0,0,0,0,0,,0.0,,0.0
0.006142163990807023,0.005713131371882351,139.68957871396893,0.8452852863957259,0,0,0,0,0,0,0,0,0,0,0,,0.0,,0.0
0.00801593599681686,0.007446431577637026,139.68957871396893,0.8452852863957259,0,0,0,0,0,0,0,0,0,0,0,,0.0,,0.0
0.01010845512504058,0.009131973615367812,139.68957871396893,0.8452852863957259,0,0,0,0,0,0,0,0,0,0,0,,0.0,,0.0
0.012129578133819418,0.010758764738098805,139.68957871396893,0.8452852863957259,0,0,0,0,0,0,0,0,0,0,0,,0.0,,0.0
0.013596875044167137,0.012317400640194737,139.68957871396893,0.8452852863957259,0,0,0,0,0,0,0,0,0,0,0,,0.0,,0.0
0.014476944839353138,0.013809752819513596,139.68957871396893,0.8452852863957259,0,0,0,0,0,0,0,0,0,0,0,,0.0,,0.0
0.015323390756162602,0.015247634825698986,139.68957871396893,0.8452852863957259,0,0,0,0,0,0,0,0,0,0,0,,0.0,,0.0
0.016579033890131607,0.016641241546465752,139.68957871396893,0.8452852863957259,0,0,0,0,0,0,0,0,0,0,0,,0.0,,0.0
0.018069454181252304,0.017996818701700168,139.68957871396893,0.8452852863957259,0,0,0,0,0,0,0,0,0,0,0,,0.0,,0.0
0.019446661294038485,0.01932968836764019,139.68957871396893,0.8452852863957259,0,0,0,0,0,0,0,0,0,0,0,,0.0,,0.0
0.02072113400639805,0.020673857399283842,139.68957871396893,0.8452852863957259,0,0,0,0,0,0,0,0,0,0,0,,0.0,,0.0
0.0220253200496749,0.02207700355602237,139.68957871396893,0.8452852863957259,0,0,0,0,0,0,0,0,0,0,0,,0.0,,0.0
0.023287710913842952,0.023591766793723275,139.68957871396893,0.8452852863957259,0,0,0,0,0,0,0,0,0,0,0,,0.0,,0.0
0.024462544969937095,0.025269447031406107,139.68957871396893,0.8452852863957259,0,0,0,0,0,0,0,0,0,0,0,,0.0,,0.0
0.025637577081425018,0.02715170498571933,139.68957871396893,0.8452852863957259,0,0,0,0,0,0,0,0,0,0,0,,0.0,,0.0
0.02672035507680879,0.029271502194514874,139.68957871396893,0.8452852863957259,0,0,0,0,0,0,0,0,0,0,0,,0.0,,0.0
0.02760804733236456,0.031677164730324725,139.68957871396893,0.8452852863957259,0,0,0,0,0,0,0,0,0,0,0,,0.0,,0.0
0.028835033787024077,0.03445308052786879,139.68957871396893,0.8452852863957259,0,0,0,0,0,0,0,0,0,0,0,,0.0,,0.0
0.03137964743599205,0.03769594912215263,139.68957871396893,0.8452852863957259,0,0,0,0,0,0,0,0,0,0,0,,0.0,,0.0
0.03565282693410171,0.04146880545042639,139.68957871396893,0.8452852863957259,0,0,0,0,0,0,0,0,0,0,0,,0.0,,0.0
0.04119269090373851,0.045805059980645844,139.68957871396893,0.8452852863957259,0,0,1,0,0,0,0,0,0,0,0,,0.0,,0.0
0.04719140242883574,0.050774713178096044,139.68957871396893,0.8452852863957259,0,0,0,0,0,0,0,0,0,0,0,,0.0,,0.0
0.052753772913992185,0.05653739984241863,139.68957871396893,0.8452852863957259,0,0,0,0,0,0,0,0,0,0,0,,0.0,,0.0
0.05724850578565222,0.06332655732648121,139.68957871396893,0.8452852863957259,0,0,0,0,0,0,0,0,0,0,0,,0.0,,0.0
0.061427543102215314,0.07138861586851981,139.68957871396893,0.8452852863957259,0,0,0,0,0,0,0,0,0,0,0,,0.0,,0.0
0.067545752880092,0.0809098581631222,139.68957871396893,0.8452852863957259,0,0,0,0,0,0,0,0,0,0,0,,0.0,,0.0
0.07691360138084617,0.09193147344622885,139.68957871396893,0.8452852863957259,0,0,0,0,0,0,0,0,0,0,0,,0.0,,0.0
0.08778200119158516,0.10428136805202377,139.68957871396893,0.8452852863957259,0,0,0,0,0,0,0,0,0,0,0,,0.0,,0.0
0.09768441855362146,0.11758170688564588,139.68957871396893,0.8452852863957259,0,0,0,0,0,0,0,0,0,0,0,,0.0,,0.0
0.1081947339532036,0.1313252773044798,139.68957871396893,0.8452852863957259,0,0,0,0,0,0,0,0,0,0,0,,0.0,,0.0
0.12500015251455582,0.14493769175347337,139.68957871396893,0.8452852863957259,0,0,0,0,0,0,0,0,0,0,0,,0.0,,0.0
0.15165698637191494,0.157783516818348,139.68957871396893,0.8452852863957259,0,0,0,0,0,0,0,0,0,0,0,,0.0,,0.0
0.1848631887264262,0.16916275359878116,139.68957871396893,0.8452852863957259,0,0,0,0,0,0,0,0,0,0,0,,0.0,,0.0
0.2173209612691685,0.17834285060277158,139.68957871396893,0.8452852863957259,0,0,0,0,0,0,0,0,0,0,0,,0.0,,0.0
0.24313239034678008,0.18461777636880128,139.68957871396893,0.8452852863957259,0,0,0,0,0,0,0,0,0,0,0,,0.0,,0.0
0.25840507265864143,0.1873889986825341,139.68957871396893,0.8452852863957259,0,1,0,0,0,0,0,0,0,0,0,1.0,0.0,,0.0
0.2590438280356676,0.1862846984475171,139.68957871396893,0.8452852863957259,0,0,0,0,0,0,0,0,0,0,0,1.0,0.01666666666666667,,0.0
0.24177024897923327,0.18128678470892767,139.68957871396893,0.8452852863957259,0,0,0,0,0,0,0,0,0,0,0,1.0,0.03333333333333334,,0.0
0.2083093231008043,0.17277955106911755,139.68957871396893,0.8452852863957259,0,0,0,0,0,0,0,0,0,0,0,1.0,0.05,,0.0
0.16761813624475327,0.16146403771672055,139.68957871396893,0.8452852863957259,0,0,0,0,0,0,0,0,0,0,0,1.0,0.06666666666666668,,0.0
0.13214588535314464,0.1481693008593936,139.68957871396893,0.8452852863957259,0,0,0,0,0,0,0,0,0,0,0,1.0,0.08333333333333333,,0.0
0.10946106892370773,0.13366010639848003,139.68957871396893,0.8452852863957259,0,0,0,0,0,0,0,0,0,0,0,1.0,0.1,,0.0
0.09705607138562121,0.11854908885932108,139.68957871396893,0.8452852863957259,0,0,0,0,0,0,0,0,0,0,0,1.0,0.11666666666666667,,0.0
0.086873854905742,0.1033447632478974,139.68957871396893,0.8452852863957259,0,0,0,0,0,0,0,0,0,0,0,1.0,0.13333333333333336,,0.0
0.07446457178376939,0.08854425232892525,139.68957871396893,0.8452852863957259,0,0,0,0,0,0,0,0,0,0,0,1.0,0.15,,0.0
0.061709934467113765,0.07464046826125514,139.68957871396893,0.8452852863957259,0,0,0,0,0,0,0,0,0,0,0,1.0,0.16666666666666666,,0.0
0.05181061872572193,0.06201905973648495,139.68957871396893,0.8452852863957259,0,0,0,0,0,0,0,0,0,0,0,1.0,0.18333333333333332,,0.0
0.04482453852458405,0.050846262668103714,139.68957871396893,0.8452852863957259,0,0,0,0,0,0,0,0,0,0,0,1.0,0.2,,0.0
0.038104405751032785,0.04105219770056298,139.68957871396893,0.8452852863957259,0,0,0,0,0,0,0,0,0,0,0,1.0,0.21666666666666667,,0.0
0.029117454876618532,0.03242618720722705,139.68957871396893,0.8452852863957259,0,0,0,0,0,0,0,0,0,0,0,1.0,0.23333333333333334,,0.0
0.017844242122517895,0.024764827292251976,139.68957871396893,0.8452852863957259,0,0,0,0,0,0,0,0,0,0,0,1.0,0.25,,0.0
0.007081345376047341,0.017980041215422012,139.68957871396893,0.8452852863957259,0,0,0,1,0,0,0,0,0,0,0,1.0,0.2666666666666667,,0.0
-8.323404646802079e-05,0.01209684642819256,139.68957871396893,0.8452852863957259,0,0,0,0,0,0,0,0,0,0,0,1.0,0.2833333333333333,,0.0
-0.003193045697839369,0.007160975657366464,139.68957871396893,0.8452852863957259,0,0,0,0,0,0,0,0,0,0,0,1.0,0.3,,0.0
-0.0045317077904914686,0.0031570621276825936,139.68957871396893,0.8452852863957259,0,0,0,0,0,0,0,0,0,0,0,1.0,0.3166666666666667,,0.0
-0.006748678272718961,1.2681105938609077e-05,139.68957871396893,0.8452852863957259,0,0,0,0,0,0,0,0,0,0,0,1.0,0.3333333333333333,,0.0
-0.010562356526210827,-0.002334846312806768,139.68957871396893,0.8452852863957259,0,0,0,0,0,0,0,0,0,0,0,1.0,0.35,,0.0
-0.014248756220276784,-0.0038883097995355545,139.68957871396893,0.8452852863957259,0,0,0,0,0,0,0,0,0,0,0,1.0,0.36666666666666664,,0.0
-0.015295741401734793,-0.004609062151398535,139.68957871396893,0.8452852863957259,0,0,0,0,0,0,0,0,0,0,0,1.0,0.38333333333333336,,0.0
-0.01291872878900577,-0.0044947606061662435,139.68957871396893,0.8452852863957259,0,0,0,0,0,0,0,0,0,0,0,1.0,0.4,,0.0
-0.008800460403185422,-0.0036606229664342066,139.68957871396893,0.8452852863957259,0,0,0,0,0,0,0,0,0,0,0,1.0,0.4166666666666667,,0.0
-0.005139575368121554,-0.0023630009533513684,139.68957871396893,0.8452852863957259,0,0,0,0,0,0,0,0,0,0,0,1.0,0.43333333333333335,,0.0
-0.0024903471177447184,-0.0009619369441894257,139.68957871396893,0.8452852863957259,0,0,0,0,0,0,0,0,0,0,0,1.0,0.45,,0.0
-6.431467070846077e-05,0.00010647663686737892,139.68957871396893,0.8452852863957259,0,0,0,0,0,0,0,0,0,0,0,1.0,0.4666666666666667,,0.0
0.0024252876556877393,0.0002924152814972353,139.68957871396893,0.8452852863957259,0,0,0,0,0,0,0,0,0,0,0,1.0,0.48333333333333334,,0.0
0.004478210132645886,-0.001136356891559656,139.68957871396893,0.8452852863957259,0,0,0,0,0,0,0,0,0,0,0,1.0,0.5,,0.0
0.006471318791640605,-0.005140717736810722,139.68957871396893,0.8452852863957259,0,0,0,0,0,0,0,0,0,0,0,1.0,0.5166666666666666,,0.0
0.00994943631124196,-0.012944275648282728,139.68957871396893,0.8452852863957259,0,0,0,0,0,0,0,0,0,0,0,1.0,0.5333333333333334,,0.0
0.014809991260371094,-0.026046626241182716,139.68957871396893,0.8452852863957259,0,0,0,0,0,0,0,0,0,0,0,1.0,0.55,,0.0
0.01702930330510331,-0.046089196511214944,139.68957871396893,0.8452852863957259,0,0,0,0,0,1,0,0,0,0,0,1.0,0.5666666666666667,,0.0
0.010903996804224865,-0.07447232710312529,139.68957871396893,0.8452852863957259,0,0,0,0,0,0,0,0,0,0,0,1.0,0.5833333333333334,,0.0
-0.007015458139208447,-0.11188633592115978,139.68957871396893,0.8452852863957259,0,0,0,0,0,0,0,0,0,0,0,1.0,0.6,,0.0
-0.038161548793355045,-0.15808950634925595,139.68957871396893,0.8452852863957259,0,0,0,0,0,0,0,0,0,0,0,1.0,0.6166666666666667,,0.0
-0.08518200737020054,-0.2120307046377658,139.68957871396893,0.8452852863957259,0,0,0,0,0,0,0,0,0,0,0,1.0,0.6333333333333334,,0.0
-0.15208761317694358,-0.2720496798273869,139.68957871396893,0.8452852863957259,0,0,0,0,0,0,0,0,0,0,0,1.0,0.65,,0.0
-0.24185246775882538,-0.3358868262813769,139.68957871396893,0.8452852863957259,0,0,0,0,0,0,0,0,0,0,0,1.0,0.6666666666666666,,0.0
-0.35641329630334834,-0.4005295114016274,139.68957871396893,0.8452852863957259,0,0,0,0,0,0,0,0,0,0,0,1.0,0.6833333333333335,,0.0
-0.49573010795512007,-0.46209346222638525,139.68957871396893,0.8452852863957259,0,0,0,0,0,0,0,0,0,0,0,1.0,0.7,,0.0
-0.6491045974661293,-0.5159369723107641,139.68957871396893,0.8452852863957259,0,0,0,0,0,0,0,0,0,0,0,1.0,0.7166666666666667,,0.0
-0.7870769356452019,-0.5571940117473114,139.68957871396893,0.8452852863957259,0,0,0,0,0,0,0,0,0,0,0,1.0,0.7333333333333333,,0.0
-0.8724774928044524,-0.5817349783604009,139.68957871396893,0.8452852863957259,0,0,0,0,0,0,0,0,0,0,0,1.0,0.75,,0.0
-0.8878055116380096,-0.5871224959366219,139.68957871396893,0.8452852863957259,0,0,0,0,0,0,0,0,0,0,0,1.0,0.7666666666666667,,0.0
-0.8476334319254691,-0.5729218509676767,139.68957871396893,0.8452852863957259,0,0,0,0,1,0,0,0,0,0,0,1.0,0.7833333333333333,,0.0
-0.7780751714701839,-0.540223267654157,139.68957871396893,0.8452852863957259,0,0,0,0,0,0,0,0,0,0,0,1.0,0.8,,0.0
-0.6884153077956187,-0.49096221339771834,139.68957871396893,0.8452852863957259,0,0,0,0,0,0,0,0,0,0,0,1.0,0.8166666666666667,,0.0
-0.5687345658757567,-0.42768975839517875,139.68957871396893,0.8452852863957259,0,0,0,0,0,0,0,0,0,0,0,1.0,0.8333333333333334,,0.0
-0.4114219218940687,-0.35382140514284965,139.68957871396893,0.8452852863957259,0,0,0,0,0,0,0,0,0,0,0,1.0,0.85,,0.0
-0.2293629048744368,-0.27386446108874996,139.68957871396893,0.8452852863957259,0,0,0,0,0,0,0,0,0,0,0,1.0,0.8666666666666667,,0.0
-0.05436933495129512,-0.19314791564092917,139.68957871396893,0.8452852863957259,0,0,0,0,0,0,0,0,0,0,0,1.0,0.8833333333333333,,0.0
0.08042700714750951,-0.11697280338638189,139.68957871396893,0.8452852863957259,0,0,0,0,0,0,0,0,0,0,0,1.0,0.9,,0.0
0.15948893339513334,-0.04955076534494398,139.68957871396893,0.8452852863957259,0,0,0,0,0,0,0,0,0,0,0,1.0,0.9166666666666666,,0.0
0.19022381400574567,0.006678134890879123,139.68957871396893,0.8452852863957259,0,0,0,0,0,0,0,0,0,0,0,1.0,0.9333333333333333,,0.0
0.1926917563057159,0.05098747635025011,139.68957871396893,0.8452852863957259,0,0,0,0,0,0,0,0,0,0,0,1.0,0.95,,0.0
0.18528210767816783,0.08374744379449142,139.68957871396893,0.8452852863957259,0,0,0,0,0,0,0,0,0,0,0,1.0,0.9666666666666667,,0.0
0.17640053296865324,0.10578949020731025,139.68957871396893,0.8452852863957259,0,0,0,0,0,0,0,0,0,0,0,1.0,0.9833333333333333,,0.0
0.1639767333364818,0.11817065483429645,139.68957871396893,0.8452852863957259,0,0,0,0,0,0,0,0,0,0,0,1.0,1.0,,0.0
0.1424322163760901,0.12232896546535085,139.68957871396893,0.8452852863957259,1,0,0,0,0,0,0,0,0,0,0,0.0,0.0,1.0,0.0
0.11296823234715761,0.12027115025245332,139.67951675618588,0.8422595403599595,0,0,0,0,0,0,0,0,0,0,0,0.0,0.006493506493506495,1.0,0.01639344262295082
0.08622651383662942,0.11441714047008153,139.6694566751108,0.8392393503521552,0,0,0,0,0,0,0,0,0,0,0,0.0,0.01298701298701299,1.0,0.03278688524590164
0.07262754480321881,0.10706119047826478,139.65939889745428,0.8362247163723131,0,0,0,0,0,0,0,0,0,0,0,0.0,0.01948051948051948,1.0,0.04918032786885247
0.07214570551778716,0.0998123263320517,139.64934384968092,0.8332156384204327,0,0,0,0,0,0,0,0,0,0,0,0.0,0.02597402597402598,1.0,0.06557377049180328
0.07630149853181485,0.09342381097088456,139.63929195800964,0.8302121164965144,0,0,0,0,0,0,0,0,0,0,0,0.0,0.03246753246753247,1.0,0.0819672131147541
0.07808388932207276,0.08805078196051726,139.629243648414,0.8272141506005579,0,0,0,0,0,0,0,0,0,0,0,0.0,0.03896103896103896,1.0,0.09836065573770494
0.07685173947594477,0.08362806831351116,139.61919934662217,0.8242217407325636,0,0,0,0,0,0,0,0,0,0,0,0.0,0.045454545454545456,1.0,0.11475409836065573
0.0751327601530865,0.08008872256205549,139.60915947811753,0.8212348868925312,0,0,0,0,0,0,0,0,0,0,0,0.0,0.05194805194805196,1.0,0.13114754098360656
0.0744073068842274,0.07738611311341635,139.59912446813874,0.8182535890804609,0,0,0,0,0,0,0,0,0,0,0,0.0,0.05844155844155845,1.0,0.14754098360655737
0.07467855281383713,0.07542422322479196,139.58909474168016,0.8152778472963526,0,0,0,0,0,0,0,0,0,0,0,0.0,0.06493506493506494,1.0,0.1639344262295082
0.07568480352237361,0.0740011048858174,139.57907072349218,0.8123076615402062,0,0,0,0,0,0,0,0,0,0,0,0.0,0.07142857142857144,1.0,0.18032786885245902
0.07663334061887618,0.07283139445097866,139.56905283808163,0.8093430318120217,0,0,0,0,0,0,1,0,0,0,0,0.0,0.07792207792207792,1.0,0.1967213114754099
0.07554177369075689,0.07164776868157365,139.55904150971216,0.8063839581117992,0,0,0,0,0,0,0,0,0,0,0,0.0,0.08441558441558442,1.0,0.21311475409836064
0.0708425702393734,0.07029953086061891,139.54903716240466,0.8034304404395389,0,0,0,0,0,0,0,0,0,0,0,0.0,0.09090909090909091,1.0,0.22950819672131145
0.0639331393407029,0.06876292914833097,139.53904021993776,0.8004824787952404,0,0,0,0,0,0,0,0,0,0,0,0.0,0.0974025974025974,1.0,0.24590163934426232
0.05851298666690714,0.06707264414077778,139.52905110584823,0.7975400731789042,0,0,0,0,0,0,0,0,0,0,0,0.0,0.10389610389610392,1.0,0.26229508196721313
0.056763695287073236,0.06525718840273526,139.5190702434316,0.7946032235905297,0,0,0,0,0,0,0,0,0,0,0,0.0,0.1103896103896104,1.0,0.27868852459016397
0.057544258215295484,0.0633281701911764,139.50909805574258,0.7916719300301174,0,0,0,0,0,0,0,0,0,0,0,0.0,0.1168831168831169,1.0,0.29508196721311475
0.05891558283467988,0.061296412822078164,139.4991349655957,0.7887461924976668,0,0,0,0,0,0,0,0,0,0,0,0.0,0.12337662337662339,1.0,0.3114754098360656
0.060807896085666925,0.059167982337688683,139.48918139556582,0.7858260109931782,0,0,0,0,0,0,0,0,0,0,0,0.0,0.12987012987012989,1.0,0.3278688524590164
0.0637481221063686,0.056921167347587495,139.47923776798885,0.7829113855166516,0,0,0,0,0,0,0,0,0,0,0,0.0,0.13636363636363638,1.0,0.3442622950819672
0.06565469571950232,0.05451035947588649,139.46930450496225,0.7800023160680872,0,0,0,0,0,0,0,0,0,0,0,0.0,0.14285714285714288,1.0,0.36065573770491804
0.06200096362734447,0.05192509849315131,139.45938202834577,0.7770988026474849,0,0,0,0,0,0,0,0,0,0,0,0.0,0.14935064935064937,1.0,0.3770491803278689
0.05070931610541419,0.04926483430225184,139.4494707597622,0.7742008452548442,0,0,0,0,0,0,0,0,0,0,0,0.0,0.15584415584415584,1.0,0.3934426229508198
0.036202824614850825,0.046746507158887764,139.43957112059786,0.7713084438901658,0,0,0,0,0,0,0,0,0,0,0,0.0,0.16233766233766236,1.0,0.4098360655737705
0.026431488304413657,0.04461068200752974,139.42968353200354,0.7684215985534493,0,0,0,0,0,0,0,0,0,0,0,0.0,0.16883116883116883,1.0,0.4262295081967213
0.025325984069365495,0.04300138177338998,139.41980841489521,0.7655403092446945,0,0,0,0,0,0,0,0,0,0,0,0.0,0.17532467532467533,1.0,0.4426229508196722
0.029688523454508217,0.04193677183705539,139.40994618995484,0.7626645759639021,0,0,0,0,0,0,0,0,0,0,0,0.0,0.18181818181818182,1.0,0.4590163934426229
0.033763332417643524,0.0413974729502959,139.400097277631,0.7597943987110717,0,0,0,0,0,0,0,0,0,0,0,0.0,0.18831168831168832,1.0,0.4754098360655738
0.03510567579681502,0.04144208727311782,139.39026209814,0.7569297774862029,0,0,0,0,0,0,0,1,0,0,0,0.0,0.1948051948051948,1.0,0.49180327868852464
0.03541914100351754,0.04224910538210436,139.38044107146655,0.7540707122892965,0,0,0,0,0,0,0,0,0,0,0,0.0,0.20129870129870128,1.0,0.5081967213114754
0.03723782926192437,0.04406408606062996,139.37063461736474,0.7512172031203518,0,0,0,0,0,0,0,0,0,0,0,0.0,0.20779220779220783,1.0,0.5245901639344263
0.04096702296990451,0.047099697887276464,139.36084315535888,0.7483692499793693,0,0,0,0,0,0,0,0,0,0,0,0.0,0.2142857142857143,1.0,0.5409836065573771
0.04477705722535599,0.05145880680926123,139.3510671047444,0.7455268528663487,0,0,0,0,0,0,0,0,0,0,0,0.0,0.2207792207792208,1.0,0.5573770491803279
0.04673009946441146,0.05713824918633342,139.34130688458902,0.74269001178129,0,0,0,0,0,0,0,0,0,0,0,0.0,0.2272727272727273,1.0,0.5737704918032788
0.04700997150519407,0.06411315532319657,139.3315629137335,0.7398587267241934,0,0,0,0,0,0,0,0,0,1,0,0.0,0.2337662337662338,1.0,0.5901639344262295
0.04836489152819037,0.0724228401056205,139.32183561079276,0.7370329976950588,0,0,0,0,0,0,0,0,0,0,0,0.0,0.24025974025974028,1.0,0.6065573770491803
0.05437158118549839,0.08216531046269522,139.3121253941569,0.7342128246938862,0,0,0,0,0,0,0,0,0,0,0,0.0,0.24675324675324678,1.0,0.6229508196721312
0.0670101887107182,0.09338636645566188,139.30243268199226,0.7313982077206755,0,0,0,0,0,0,0,0,0,0,0,0.0,0.2532467532467533,1.0,0.6393442622950821
0.08565171766933938,0.1059315540579662,139.29275789224252,0.7285891467754269,0,0,0,0,0,0,0,0,0,0,0,0.0,0.25974025974025977,1.0,0.6557377049180328
0.10789439776347662,0.11934526768307449,139.28310144262971,0.7257856418581402,0,0,0,0,0,0,0,0,0,0,0,0.0,0.26623376623376627,1.0,0.6721311475409837
0.1308921554562062,0.13288236466485615,139.27346375065554,0.7229876929688155,0,0,0,0,0,0,0,0,0,0,0,0.0,0.27272727272727276,1.0,0.6885245901639344
0.1522909661796434,0.1456553868881478,139.26384523360232,0.7201953001074528,0,0,0,0,0,0,0,0,0,0,0,0.0,0.27922077922077926,1.0,0.7049180327868854
0.1708864142395594,0.1568460109431894,139.2542463085344,0.7174084632740522,0,0,0,0,0,0,0,0,0,0,0,0.0,0.28571428571428575,1.0,0.7213114754098361
0.186812116285219,0.16583807839526488,139.2446673922991,0.7146271824686135,0,0,0,0,0,0,0,0,0,0,0,0.0,0.29220779220779225,1.0,0.737704918032787
0.20107478041120508,0.17219584205713245,139.23510890152815,0.7118514576911367,0,0,0,0,0,0,0,0,0,0,0,0.0,0.29870129870129875,1.0,0.7540983606557378
0.2146909123045391,0.1755543052030395,139.2255712526389,0.7090812889416219,0,0,0,0,0,0,0,0,1,0,0,0.0,0.30519480519480524,1.0,0.7704918032786886
0.22692185260365738,0.1755493993417237,139.21605486183557,0.7063166762200692,0,0,0,0,0,0,0,0,0,0,0,0.0,0.3116883116883117,1.0,0.7868852459016396
0.23267894981925713,0.17186813771403203,139.20656014511047,0.7035576195264784,0,0,0,0,0,0,0,0,0,0,0,0.0,0.3181818181818182,1.0,0.8032786885245903
0.22305919902186722,0.1644202290127398,139.19708751824555,0.7008041188608496,0,0,0,0,0,0,0,0,0,0,0,0.0,0.32467532467532473,1.0,0.819672131147541
0.19271692023846657,0.15354379268965132,139.18763739681359,0.6980561742231829,0,0,0,0,0,0,0,0,0,0,0,0.0,0.3311688311688311,1.0,0.8360655737704918
0.14814802822347867,0.1400722612720502,139.17821019617955,0.6953137856134781,0,0,0,0,0,0,0,0,0,0,0,0.0,0.33766233766233766,1.0,0.8524590163934426
0.10538420688291857,0.1251287513343657,139.16880633150208,0.6925769530317354,0,0,0,0,0,0,0,0,0,0,0,0.0,0.34415584415584416,1.0,0.8688524590163935
0.07714931669055686,0.10974107744768602,139.15942621773493,0.6898456764779547,0,0,0,0,0,0,0,0,0,0,0,0.0,0.35064935064935066,1.0,0.8852459016393444
0.06347305074792015,0.09456733995131025,139.15007026962837,0.6871199559521358,0,0,0,0,0,0,0,0,0,0,0,0.0,0.35714285714285715,1.0,0.9016393442622951
0.0552189248236227,0.07992666415755813,139.14073890173063,0.684399791454279,0,0,0,0,0,0,0,0,0,0,0,0.0,0.36363636363636365,1.0,0.9180327868852458
0.0446895094075054,0.06603887023272434,139.1314325283894,0.6816851829843842,0,0,0,0,0,0,0,0,0,0,0,0.0,0.37012987012987014,1.0,0.9344262295081968
0.03184611388234359,0.05321799314169166,139.12215156375353,0.6789761305424513,0,0,0,0,0,0,0,0,0,0,0,0.0,0.37662337662337664,1.0,0.9508196721311476
0.021692659014052106,0.04185895353912344,139.1128964217743,0.6762726341284804,0,0,0,0,0,0,0,0,0,0,0,0.0,0.38311688311688313,1.0,0.9672131147540983
0.01762366208443155,0.03225065629106366,139.1036675162072,0.6735746937424716,0,0,0,0,0,0,0,0,0,0,0,0.0,0.3896103896103896,1.0,0.9836065573770493
0.018039765086592326,0.02437188883207642,139.09446526061342,0.6708823093844248,0,0,0,0,0,0,0,0,0,0,0,0.0,0.3961038961038961,1.0,1.0
0.01821596822917557,0.017834174423055765,139.08529006836156,0.6681954810543398,0,0,0,0,0,0,0,0,0,0,1,0.0,0.40259740259740256,0.0,0.0
0.014071058839669606,0.012044774727296165,139.07614235262912,0.665514208752217,0,0,0,0,0,0,0,0,0,0,0,0.0,0.4090909090909091,0.0,0.006493506493506495
0.00481595071135545,0.006501820332375256,139.0670225264044,0.662838492478056,0,0,0,0,0,0,0,0,0,0,0,0.0,0.41558441558441567,0.0,0.01298701298701299
-0.0065496661247203495,0.0010076861043223073,139.05793100248792,0.6601683322318572,0,0,0,0,0,0,0,0,0,0,0,0.0,0.4220779220779221,0.0,0.01948051948051948
-0.01533848013413441,-0.004357481788638634,139.0488681934944,0.6575037280136203,0,0,0,0,0,0,0,0,0,0,0,0.0,0.4285714285714286,0.0,0.02597402597402598
-0.01860986156656746,-0.00944513306520667,139.03983451185425,0.6548446798233455,0,0,0,0,0,0,0,0,0,0,0,0.0,0.4350649350649351,0.0,0.03246753246753247
-0.017035443179272858,-0.014224024142965822,139.03083036981556,0.6521911876610325,0,0,0,0,0,0,0,0,0,0,0,0.0,0.4415584415584416,0.0,0.03896103896103896
-0.014208879794713716,-0.018800048628485604,139.0218561794457,0.6495432515266816,0,0,0,0,0,0,0,0,0,0,0,0.0,0.4480519480519481,0.0,0.045454545454545456
-0.014848296209441541,-0.02329544967222932,139.01291235263326,0.6469008714202925,0,0,0,0,0,0,0,0,0,0,0,0.0,0.4545454545454546,0.0,0.05194805194805196
-0.022521402686781385,-0.02769933068959842,139.0039993010899,0.6442640473418657,0,0,0,0,0,0,0,0,0,0,0,0.0,0.461038961038961,0.0,0.05844155844155845
-0.03687385596035491,-0.03178983394442656,138.995117436352,0.6416327792914006,0,0,0,0,0,0,0,0,0,0,0,0.0,0.4675324675324676,0.0,0.06493506493506494
-0.052586713096426714,-0.035195482144859395,138.98626716978276,0.6390070672688978,0,0,0,0,0,0,0,0,0,0,0,0.0,0.47402597402597413,0.0,0.07142857142857144
-0.06262447156883644,-0.037593187220001614,138.9774489125741,0.6363869112743568,0,0,0,0,0,0,0,0,0,0,0,0.0,0.48051948051948057,0.0,0.07792207792207792
-0.06366474204615513,-0.03891074208465091,138.96866307574845,0.6337723113077777,0,0,0,0,0,0,0,0,0,0,0,0.0,0.4870129870129871,0.0,0.08441558441558442
-0.05813313614337151,-0.03935331131453704,138.9599100701608,0.6311632673691607,0,0,0,0,0,0,0,0,0,0,0,0.0,0.49350649350649356,0.0,0.09090909090909091
-0.05102204604926785,-0.0392310886842976,138.95119030650065,0.6285597794585057,0,0,0,0,0,0,0,0,0,0,0,0.0,0.5,0.0,0.0974025974025974
-0.045619095674560656,-0.038764413304172414,138.94250419529405,0.6259618475758126,0,0,0,0,0,0,0,0,0,0,0,0.0,0.5064935064935066,0.0,0.10389610389610392
-0.0420367509242707,-0.03803175132843046,138.93385214690556,0.6233694717210816,0,0,0,0,0,0,0,0,0,0,0,0.0,0.512987012987013,0.0,0.1103896103896104
-0.038156850781067564,-0.03705442028862185,138.92523457154033,0.6207826518943126,0,0,0,0,0,0,0,0,0,0,0,0.0,0.5194805194805195,0.0,0.1168831168831169
-0.03173331611741749,-0.035914718651449094,138.91665187924622,0.6182013880955055,0,0,0,0,0,0,0,0,0,0,0,0.0,0.525974025974026,0.0,0.12337662337662339
-0.023466620200457745,-0.03482382503087535,138.90810447991578,0.6156256803246606,0,0,0,0,0,0,0,0,0,0,0,0.0,0.5324675324675325,0.0,0.12987012987012989
-0.01843854215815896,-0.0340835122098504,138.8995927832885,0.6130555285817775,0,0,0,0,0,0,0,0,0,0,0,0.0,0.538961038961039,0.0,0.13636363636363638
-0.02203816720810368,-0.03393231698446202,138.89111719895286,0.6104909328668564,0,0,0,0,0,0,0,0,0,0,0,0.0,0.5454545454545455,0.0,0.14285714285714288
-0.033269474245578926,-0.034384514461323054,138.88267813634852,0.6079318931798973,0,0,0,0,0,0,0,0,0,0,0,0.0,0.551948051948052,0.0,0.14935064935064937
-0.04443675183573456,-0.035226773885332324,138.87427600476855,0.6053784095209002,0,0,0,0,0,0,0,0,0,0,0,0.0,0.5584415584415585,0.0,0.15584415584415584
-0.04897702777903857,-0.03618886888556917,138.86591121336158,0.6028304818898652,0,0,0,0,0,0,0,0,0,0,0,0.0,0.564935064935065,0.0,0.16233766233766236
-0.047592087985476386,-0.03711040805505453,138.8575841711341,0.6002881102867919,0,0,0,0,0,0,0,0,0,0,0,0.0,0.5714285714285715,0.0,0.16883116883116883
-0.045385642770916765,-0.03795406941646529,138.84929528695267,0.5977512947116809,0,0,0,0,0,0,0,0,0,0,0,0.0,0.577922077922078,0.0,0.17532467532467533
-0.04521620109433216,-0.03871169124513883,138.8410449695462,0.5952200351645316,0,0,0,0,0,0,0,0,0,0,0,0.0,0.5844155844155845,0.0,0.18181818181818182
-0.045813815651191955,-0.039334990709216346,138.83283362750834,0.5926943316453446,0,0,0,0,0,0,0,0,0,0,0,0.0,0.5909090909090909,0.0,0.18831168831168832
-0.045105178417755944,-0.03973915976631105,138.82466166929967,0.5901741841541194,0,0,0,0,0,0,0,0,0,0,0,0.0,0.5974025974025975,0.0,0.1948051948051948
-0.04318977500181363,-0.03984649790257189,138.81652950325022,0.5876595926908562,0,0,0,0,0,0,0,0,0,0,0,0.0,0.603896103896104,0.0,0.20129870129870128
-0.04177870810634996,-0.0396339848371313,138.80843753756173,0.5851505572555551,0,0,0,0,0,0,0,0,0,0,0,0.0,0.6103896103896105,0.0,0.20779220779220783
-0.041867907632386535,-0.039155412334719406,138.80038618031006,0.5826470778482158,0,0,0,0,0,0,0,0,0,0,0,0.0,0.6168831168831169,0.0,0.2142857142857143
-0.042711363687579905,-0.03851156524791519,138.79237583944766,0.5801491544688386,0,0,0,0,0,0,0,0,0,0,0,0.0,0.6233766233766234,0.0,0.2207792207792208
-0.04286379766306074,-0.03778610723190528,138.78440692280606,0.5776567871174234,0,0,0,0,0,0,0,0,0,0,0,0.0,0.6298701298701299,0.0,0.2272727272727273
-0.04176460404235919,-0.0370091206528942,138.77647983809814,0.5751699757939702,0,0,0,0,0,0,0,0,0,0,0,0.0,0.6363636363636364,0.0,0.2337662337662338
-0.0401178198554537,-0.03617683736313485,138.76859499292087,0.572688720498479,0,0,0,0,0,0,0,0,0,0,0,0.0,0.6428571428571428,0.0,0.24025974025974028
-0.03883048805473395,-0.03528809897856748,138.76075279475776,0.5702130212309499,0,0,0,0,0,0,0,0,0,0,0,0.0,0.6493506493506495,0.0,0.24675324675324678
-0.03796838282824763,-0.034354394316650605,138.75295365098125,0.5677428779913826,0,0,0,0,0,0,0,0,0,0,0,0.0,0.6558441558441559,0.0,0.2532467532467533
-0.03704768877047348,-0.03338767654327274,138.74519796885545,0.5652782907797772,0,0,0,0,0,0,0,0,0,0,0,0.0,0.6623376623376622,0.0,0.25974025974025977
-0.035942868416481685,-0.032389975330612095,138.7374861555387,0.562819259596134,0,0,0,0,0,0,0,0,0,0,0,0.0,0.6688311688311689,0.0,0.26623376623376627
-0.034900223218755876,-0.03135461127187306,138.72981861808609,0.5603657844404527,0,0,0,0,0,0,0,0,0,0,0,0.0,0.6753246753246753,0.0,0.27272727272727276
-0.03392573831179873,-0.030277286614523793,138.72219576345222,0.5579178653127334,0,0,0,0,0,0,0,0,0,0,0,0.0,0.6818181818181819,0.0,0.27922077922077926
-0.0328116768242568,-0.02916763754827089,138.71461799849374,0.5554755022129763,0,0,0,0,0,0,0,0,0,0,0,0.0,0.6883116883116883,0.0,0.28571428571428575
-0.03158444458153177,-0.028046410947636616,138.70708572997208,0.5530386951411809,0,0,0,0,0,0,0,0,0,0,0,0.0,0.6948051948051949,0.0,0.29220779220779225
-0.030394122146286957,-0.026929017343845743,138.6995993645563,0.5506074440973476,0,0,0,0,0,0,0,0,0,0,0,0.0,0.7012987012987013,0.0,0.29870129870129875
-0.02919110102902217,-0.025817308860773033,138.69215930882547,0.5481817490814764,0,0,0,0,0,0,0,0,0,0,0,0.0,0.7077922077922079,0.0,0.30519480519480524
-0.027934701961131812,-0.024709219357199295,138.68476596927178,0.5457616100935669,0,0,0,0,0,0,0,0,0,0,0,0.0,0.7142857142857143,0.0,0.3116883116883117
-0.026808135316863404,-0.02360760134447039,138.67741975230317,0.5433470271336197,0,0,0,0,0,0,0,0,0,0,0,0.0,0.7207792207792209,0.0,0.3181818181818182
-0.025878294097310583,-0.022515177669098184,138.67012106424608,0.5409380002016342,0,0,0,0,0,0,0,0,0,0,0,0.0,0.7272727272727273,0.0,0.32467532467532473
-0.024916059240869853,-0.021429193195602984,138.66287031134834,0.5385345292976109,0,0,0,0,0,0,0,0,0,0,0,0.0,0.7337662337662338,0.0,0.3311688311688311
-0.023812004275644155,-0.020346214047913536,138.655667899782,0.5361366144215496,0,0,0,0,0,0,0,0,0,0,0,0.0,0.7402597402597403,0.0,0.33766233766233766
-0.022737398369420868,-0.019265683962028816,138.6485142356462,0.5337442555734502,0,0,0,0,0,0,0,0,0,0,0,0.0,0.746753246753247,0.0,0.34415584415584416
-0.021740451931859306,-0.018186152568521147,138.64140972497006,0.5313574527533127,0,0,0,0,0,0,0,0,0,0,0,0.0,0.7532467532467533,0.0,0.35064935064935066
-0.020674552413586383,-0.017105292762959193,138.6343547737156,0.5289762059611374,0,0,0,0,0,0,0,0,0,0,0,0.0,0.7597402597402598,0.0,0.35714285714285715
-0.01957826005339055,-0.016024727526664905,138.62734978778064,0.526600515196924,0,0,0,0,0,0,0,0,0,0,0,0.0,0.7662337662337663,0.0,0.36363636363636365
-0.01861233507010408,-0.014946790880999462,138.62039517300187,0.5242303804606725,0,0,0,0,0,0,0,0,0,0,0,0.0,0.7727272727272727,0.0,0.37012987012987014
-0.017672067742204936,-0.01386598345375267,138.6134913351577,0.5218658017523832,0,0,0,0,0,0,0,0,0,0,0,0.0,0.7792207792207791,0.0,0.37662337662337664
-0.01655327289238164,-0.012770857213150019,138.6066386799714,0.5195067790720556,0,0,0,0,0,0,0,0,0,0,0,0.0,0.7857142857142858,0.0,0.38311688311688313
-0.015338720214698833,-0.01165318364651301,138.599837613114,0.5171533124196903,0,0,0,0,0,0,0,0,0,0,0,0.0,0.7922077922077922,0.0,0.3896103896103896
-0.014175633192962953,-0.010508545723753497,138.5930885402075,0.5148054017952868,0,0,0,0,0,0,0,0,0,0,0,0.0,0.7987012987012989,0.0,0.3961038961038961
-0.012954492699124357,-0.009331796871553243,138.58639186682777,0.5124630471988454,0,0,0,0,0,0,0,0,0,0,0,0.0,0.8051948051948051,0.0,0.40259740259740256
-0.01163468018658366,-0.008120961504753197,138.57974799850777,0.5101262486303658,0,0,0,0,0,0,0,0,0,0,0,0.0,0.8116883116883119,0.0,0.4090909090909091
-0.01052209039030004,-0.006882127687093745,138.57315734074072,0.5077950060898484,0,0,0,0,0,0,0,0,0,0,0,0.0,0.8181818181818182,0.0,0.41558441558441567
-0.00977977446377158,-0.005620858789933791,138.56662029898317,0.5054693195772929,0,0,0,0,0,0,0,0,0,0,0,0.0,0.8246753246753248,0.0,0.4220779220779221
-0.009010867752429057,-0.00433147049062229,138.5601372786581,0.5031491890926995,0,0,0,0,0,0,0,0,0,0,0,0.0,0.8311688311688313,0.0,0.4285714285714286
-0.0077320558242629485,-0.0030034053138848923,138.5537086851583,0.5008346146360679,0,0,0,0,0,0,0,0,0,0,0,0.0,0.8376623376623378,0.0,0.4350649350649351
-0.005963071907398584,-0.0016350065404705221,138.5473349238495,0.49852559620739834,0,0,0,0,0,0,0,0,0,0,0,0.0,0.8441558441558442,0.0,0.4415584415584416
-0.004029153140817982,-0.00023302089456147298,138.54101640007354,0.4962221338066909,0,0,0,0,0,0,0,0,0,0,0,0.0,0.8506493506493507,0.0,0.4480519480519481
-0.0020881422627841554,0.0011968812517278917,138.5347535191518,0.4939242274339453,0,0,0,0,0,0,0,0,0,0,0,0.0,0.8571428571428572,0.0,0.4545454545454546
-0.0002095027222244883,0.0026483900681801664,138.52854668638835,0.49163187708916184,0,0,0,0,0,0,0,0,0,0,0,0.0,0.8636363636363638,0.0,0.461038961038961
0.0013263241244110542,0.004105750314338162,138.5223963070733,0.4893450827723402,0,0,0,0,0,0,0,0,0,0,0,0.0,0.8701298701298702,0.0,0.4675324675324676
0.002282578462394394,0.005551383738030756,138.51630278648625,0.4870638444834806,0,0,0,0,0,0,0,0,0,0,0,0.0,0.8766233766233766,0.0,0.47402597402597413
0.002954515357898386,0.006993528669449663,138.51026652989944,0.4847881622225831,0,0,0,0,0,0,0,0,0,0,0,0.0,0.8831168831168832,0.0,0.48051948051948057
0.003941720115778955,0.008492312012581608,138.50428794258139,0.4825180359896475,0,0,0,0,0,0,0,0,0,0,0,0.0,0.8896103896103896,0.0,0.4870129870129871
0.005439028143706068,0.010170921697491113,138.49836742980003,0.48025346578467387,0,0,0,0,0,0,0,0,0,0,0,0.0,0.8961038961038962,0.0,0.49350649350649356
0.007196437658318026,0.012215069344354271,138.49250539682637,0.4779944516076623,0,0,0,0,0,0,0,0,0,0,0,0.0,0.9025974025974026,0.0,0.5
0.00911950373930818,0.014855784992786876,138.48670224893786,0.47574099345861276,0,0,0,0,0,0,0,0,0,0,0,0.0,0.9090909090909092,0.0,0.5064935064935066
0.011301546480041983,0.018325900499262405,138.4809583914219,0.4734930913375251,0,0,0,0,0,0,0,0,0,0,0,0.0,0.9155844155844156,0.0,0.512987012987013
0.013338069079505351,0.022810161747259954,138.47527422957924,0.47125074524439947,0,0,1,0,0,0,0,0,0,0,0,0.0,0.922077922077922,0.0,0.5194805194805195
0.014356772908554232,0.028436109558697235,138.46965016872767,0.4690139551792357,0,0,0,0,0,0,0,0,0,0,0,0.0,0.9285714285714286,0.0,0.525974025974026
0.01444949597743665,0.035324738716790746,138.46408661420548,0.4667827211420341,0,0,0,0,0,0,0,0,0,0,0,0.0,0.9350649350649352,0.0,0.5324675324675325
0.01586605951642059,0.043648677183430094,138.45858397137505,0.4645570431327944,0,0,0,0,0,0,0,0,0,0,0,0.0,0.9415584415584416,0.0,0.538961038961039
0.022110067534709486,0.053605638686062815,138.45314264562643,0.4623369211515168,0,0,0,0,0,0,0,0,0,0,0,0.0,0.9480519480519483,0.0,0.5454545454545455
0.03566098702250728,0.06526950017234226,138.44776304238096,0.46012235519820105,0,0,0,0,0,0,0,0,0,0,0,0.0,0.9545454545454545,0.0,0.551948051948052
0.05645789054271072,0.07840353890621607,138.442445567095,0.45791334527284744,0,0,0,0,0,0,0,0,0,0,0,0.0,0.9610389610389611,0.0,0.5584415584415585
0.0817969330281854,0.09238990895828829,138.43719062526353,0.4557098913754557,0,0,0,0,0,0,0,0,0,0,0,0.0,0.9675324675324676,0.0,0.564935064935065
0.10715729760705968,0.10635466148233959,138.4319986224239,0.453511993506026,0,0,0,0,0,0,0,0,0,0,0,0.0,0.9740259740259742,0.0,0.5714285714285715
0.12806208261869229,0.11941079152500449,138.42686996415938,0.4513196516645583,0,0,0,0,0,0,0,0,0,0,0,0.0,0.9805194805194807,0.0,0.577922077922078
0.14294822834150947,0.13085666915100724,138.42180505610318,0.4491328658510526,0,0,0,0,0,0,0,0,0,0,0,0.0,0.9870129870129871,0.0,0.5844155844155845
0.15520650325108631,0.14021627716974236,138.416804303942,0.44695163606550886,0,0,0,0,0,0,0,0,0,0,0,0.0,0.9935064935064936,0.0,0.5909090909090909
0.1711189464607609,0.14712448135518988,138.4118681134199,0.44477596230792704,0,0,0,0,0,0,0,0,0,0,0,0.0,1.0,0.0,0.5974025974025975
0.1927672189332703,0.15116845152030098,138.40699689034213,0.4426058445783073,0,1,0,0,0,0,0,0,0,0,0,1.0,0.0,0.0,0.603896103896104
0.21197101908466828,0.15185011827188416,138.40219104057894,0.4404412828766495,0,0,0,0,0,0,0,0,0,0,0,1.0,0.01639344262295082,0.0,0.6103896103896105
0.21441340519841268,0.14876910789125566,138.39745097006946,0.43828227720295376,0,0,0,0,0,0,0,0,0,0,0,1.0,0.03278688524590164,0.0,0.6168831168831169
0.1927253360279448,0.14192539575322444,138.3927770848256,0.43612882755721993,0,0,0,0,0,0,0,0,0,0,0,1.0,0.04918032786885247,0.0,0.6233766233766234
0.15425115087349903,0.1318766839106138,138.38816979093593,0.43398093393944814,0,0,0,0,0,0,0,0,0,0,0,1.0,0.06557377049180328,0.0,0.6298701298701299
0.11434834187854404,0.1195780178058223,138.38362949456965,0.4318385963496384,0,0,0,0,0,0,0,0,0,0,0,1.0,0.0819672131147541,0.0,0.6363636363636364
0.08381289815121047,0.10601945370330454,138.37915660198053,0.42970181478779057,0,0,0,0,0,0,0,0,0,0,0,1.0,0.09836065573770494,0.0,0.6428571428571428
0.06394696970667463,0.09194388990056365,138.3747515195109,0.42757058925390484,0,0,0,0,0,0,0,0,0,0,0,1.0,0.11475409836065573,0.0,0.6493506493506495
0.05093141411600843,0.07780993931545908,138.37041465359573,0.425444919747981,0,0,0,0,0,0,0,0,0,0,0,1.0,0.13114754098360656,0.0,0.6558441558441559
0.04138057903354049,0.06393516557116471,138.3661464107665,0.42332480627001906,0,0,0,0,0,0,0,0,0,0,0,1.0,0.14754098360655737,0.0,0.6623376623376622
0.03345364064240974,0.0506485564761482,138.36194719765544,0.4212102488200193,0,0,0,0,0,0,0,0,0,0,0,1.0,0.1639344262295082,0.0,0.6688311688311689
0.025579879829963043,0.038333782432936454,138.3578174209995,0.4191012473979814,0,0,0,0,0,0,0,0,0,0,0,1.0,0.18032786885245902,0.0,0.6753246753246753
0.01691128807083174,0.027346987179145646,138.35375748764457,0.41699780200390557,0,0,0,0,0,0,0,0,0,0,0,1.0,0.1967213114754099,0.0,0.6818181818181819
0.008508468760603731,0.017875768635416022,138.34976780454943,0.41489991263779163,0,0,0,0,0,0,0,0,0,0,0,1.0,0.21311475409836064,0.0,0.6883116883116883
0.001725616722462742,0.009859376089094998,138.3458487787901,0.41280757929963974,0,0,0,0,0,0,0,0,0,0,0,1.0,0.22950819672131145,0.0,0.6948051948051949
-0.004434723637173437,0.0030651129368100423,138.34200081756396,0.4107208019894498,0,0,0,1,0,0,0,0,0,0,0,1.0,0.24590163934426232,0.0,0.7012987012987013
-0.012120551342589624,-0.0027175524699802555,138.33822432819386,0.40863958070722195,0,0,0,0,0,0,0,0,0,0,0,1.0,0.26229508196721313,0.0,0.7077922077922079
-0.02087724791149318,-0.0075278042116894645,138.33451971813253,0.40656391545295606,0,0,0,0,0,0,0,0,0,0,0,1.0,0.27868852459016397,0.0,0.7142857142857143
-0.027410258181866386,-0.01125033309637947,138.33088739496674,0.40449380622665204,0,0,0,0,0,0,0,0,0,0,0,1.0,0.29508196721311475,0.0,0.7207792207792209
-0.02952557796079251,-0.013751171422621899,138.32732776642146,0.4024292530283102,0,0,0,0,0,0,0,0,0,0,0,1.0,0.3114754098360656,0.0,0.7272727272727273
-0.028660674968470672,-0.01498987062890985,138.32384124036452,0.4003702558579302,0,0,0,0,0,0,0,0,0,0,0,1.0,0.3278688524590164,0.0,0.7337662337662338
-0.027997611743525934,-0.015029084687846413,138.32042822481054,0.3983168147155122,0,0,0,0,0,0,0,0,0,0,0,1.0,0.3442622950819672,0.0,0.7402597402597403
-0.029017378826893498,-0.013971096172757375,138.31708912792556,0.3962689296010563,0,0,0,0,0,0,0,0,0,0,0,1.0,0.36065573770491804,0.0,0.746753246753247
-0.030210009812717216,-0.01189076142185869,138.3138243580313,0.3942266005145624,0,0,0,0,0,0,0,0,0,0,0,1.0,0.3770491803278689,0.0,0.7532467532467533
-0.028571180097727546,-0.008824748845430948,138.31063432360963,0.3921898274560304,0,0,0,0,0,0,0,0,0,0,0,1.0,0.3934426229508198,0.0,0.7597402597402598
-0.022042208457564313,-0.004850458004274124,138.30751943330702,0.3901586104254604,0,0,0,0,0,0,0,0,0,0,0,1.0,0.4098360655737705,0.0,0.7662337662337663
-0.010796820719335904,-0.0002195637016515939,138.30448009593889,0.38813294942285237,0,0,0,0,0,0,0,0,0,0,0,1.0,0.4262295081967213,0.0,0.7727272727272727
0.003086640488708231,0.004557960421361553,138.30151672049422,0.3861128444482063,0,0,0,0,0,0,0,0,0,0,0,1.0,0.4426229508196722,0.0,0.7792207792207791
0.016432951633384478,0.008746304894593097,138.29862971614,0.3840982955015223,0,0,0,0,0,0,0,0,0,0,0,1.0,0.4590163934426229,0.0,0.7857142857142858
0.025798008505052577,0.011486990791677448,138.29581949222577,0.38208930258280027,0,0,0,0,0,0,0,0,0,0,0,1.0,0.4754098360655738,0.0,0.7922077922077922
0.02918936006139052,0.011886101442238521,138.2930864582882,0.3800858656920402,0,0,0,0,0,0,0,0,0,0,0,1.0,0.49180327868852464,0.0,0.7987012987012989
0.028160993676633047,0.0090381010241228,138.29043102405572,0.3780879848292422,0,0,0,0,0,0,0,0,0,0,0,1.0,0.5081967213114754,0.0,0.8051948051948051
0.027304420377670998,0.0019595834103758466,138.28785359945297,0.37609565999440614,0,0,0,0,0,0,0,0,0,0,0,1.0,0.5245901639344263,0.0,0.8116883116883119
0.02965513886335565,-0.010549600452144202,138.2853545946057,0.374108891187532,0,0,0,0,0,0,0,0,0,0,0,1.0,0.5409836065573771,0.0,0.8181818181818182
0.03197569567178027,-0.02996189007414889,138.28293441984516,0.37212767840862,0,0,0,0,0,1,0,0,0,0,0,1.0,0.5573770491803279,0.0,0.8246753246753248
0.02602649965109273,-0.05777854992579445,138.28059348571307,0.3701520216576699,0,0,0,0,0,0,0,0,0,0,0,1.0,0.5737704918032788,0.0,0.8311688311688313
0.005205738636814752,-0.09500233515411553,138.27833220296606,0.36818192093468183,0,0,0,0,0,0,0,0,0,0,0,1.0,0.5901639344262295,0.0,0.8376623376623378
-0.031851590238066406,-0.14167184679018177,138.27615098258065,0.36621737623965567,0,0,0,0,0,0,0,0,0,0,0,1.0,0.6065573770491803,0.0,0.8441558441558442
-0.08447385191120456,-0.1967887745303105,138.2740502357579,0.36425838757259155,0,0,0,0,0,0,0,0,0,0,0,1.0,0.6229508196721312,0.0,0.8506493506493507
-0.15302008777611328,-0.25857566704903884,138.27203037392817,0.3623049549334895,0,0,0,0,0,0,0,0,0,0,0,1.0,0.6393442622950821,0.0,0.8571428571428572
-0.23765587297350427,-0.3247232613124609,138.27009180875612,0.36035707832234937,0,0,0,0,0,0,0,0,0,0,0,1.0,0.6557377049180328,0.0,0.8636363636363638
-0.3387162855181647,-0.392424089643147,138.26823495214535,0.3584147577391712,0,0,0,0,0,0,0,0,0,0,0,1.0,0.6721311475409837,0.0,0.8701298701298702
-0.45942457495352684,-0.45825993630692347,138.26646021624344,0.356477993183955,0,0,0,0,0,0,0,0,0,0,0,1.0,0.6885245901639344,0.0,0.8766233766233766
-0.6007744634254298,-0.5181164792331369,138.26476801344674,0.35454678465670086,0,0,0,0,0,0,0,0,0,0,0,1.0,0.7049180327868854,0.0,0.8831168831168832
-0.7478986326478888,-0.5673354696412098,138.2631587564054,0.35262113215740865,0,0,0,0,0,0,0,0,0,0,0,1.0,0.7213114754098361,0.0,0.8896103896103896
-0.8666015178917159,-0.6013221162560988,138.26163285802824,0.35070103568607847,0,0,0,0,0,0,0,0,0,0,0,1.0,0.737704918032787,0.0,0.8961038961038962
-0.9233485383737885,-0.6165524504299794,138.2601907314878,0.34878649524271027,0,0,0,0,0,0,0,0,0,0,0,1.0,0.7540983606557378,0.0,0.9025974025974026
-0.9115156353204555,-0.6114370501626746,138.25883279022528,0.3468775108273041,0,0,0,0,1,0,0,0,0,0,0,1.0,0.7704918032786886,0.0,0.9090909090909092
-0.8523613463703346,-0.586421746594772,138.2575594479557,0.3449740824398599,0,0,0,0,0,0,0,0,0,0,0,1.0,0.7868852459016396,0.0,0.9155844155844156
-0.7678925814337905,-0.5433536943709809,138.25637111867286,0.34307621008037764,0,0,0,0,0,0,0,0,0,0,0,1.0,0.8032786885245903,0.0,0.922077922077922
-0.6598087462410224,-0.4848150027352759,138.25526821665446,0.3411838937488574,0,0,0,0,0,0,0,0,0,0,0,1.0,0.819672131147541,0.0,0.9285714285714286
-0.5190796428730267,-0.4139805456284309,138.25425115646723,0.33929713344529916,0,0,0,0,0,0,0,0,0,0,0,1.0,0.8360655737704918,0.0,0.9350649350649352
-0.34820745346909804,-0.3348367773017117,138.25332035297205,0.33741592916970287,0,0,0,0,0,0,0,0,0,0,0,1.0,0.8524590163934426,0.0,0.9415584415584416
-0.16743308367447574,-0.25222592984103664,138.25247622132923,0.33554028092206867,0,0,0,0,0,0,0,0,0,0,0,1.0,0.8688524590163935,0.0,0.9480519480519483
-0.0045228650000554114,-0.1714144417037026,138.25171917700357,0.3336701887023964,0,0,0,0,0,0,0,0,0,0,0,1.0,0.8852459016393444,0.0,0.9545454545454545
0.11641741099673884,-0.09726595027072812,138.25104963576962,0.3318056525106861,0,0,0,0,0,0,0,0,0,0,0,1.0,0.9016393442622951,0.0,0.9610389610389611
0.18268631600487098,-0.033350536141991086,138.25046801371712,0.3299466723469378,0,0,0,0,0,0,0,0,0,0,0,1.0,0.9180327868852458,0.0,0.9675324675324676
0.19882632112797613,0.018552330937811817,138.24997472725602,0.32809324821115154,0,0,0,0,0,0,0,0,0,0,0,1.0,0.9344262295081968,0.0,0.9740259740259742
0.18504167969179391,0.05825159752793141,138.249570193122,0.32624538010332726,0,0,0,0,0,0,0,0,0,0,0,1.0,0.9508196721311476,0.0,0.9805194805194807
0.16431450375592258,0.08644040853336053,138.24925482838165,0.32440306802346486,0,0,0,0,0,0,0,0,0,0,0,1.0,0.9672131147540983,0.0,0.9870129870129871
0.14763054724840868,0.10409789257469648,138.24902905043803,0.32256631197156455,0,0,0,0,0,0,0,0,0,0,0,1.0,0.9836065573770493,0.0,0.9935064935064936
0.1315037226539436,0.11240960845536385,138.2488932770359,0.3207351119476263,0,0,0,0,0,0,0,0,0,0,0,1.0,1.0,0.0,1.0
0.10973316282255725,0.1130141124851954,138.24884792626727,0.3189094679516499,1,0,0,0,0,0,0,0,0,0,0,0.0,0.0,1.0,0.0
0.08598792493825023,0.1080694793301127,138.24884792626727,0.31708937998363557,0,0,0,0,0,0,0,0,0,0,0,0.0,0.006578947368421052,1.0,0.01694915254237288
0.07256877246024093,0.09989358834625899,138.24884792626727,0.3152748480435832,0,0,0,0,0,0,0,0,0,0,0,0.0,0.013157894736842105,1.0,0.03389830508474576
0.07614412803204323,0.09039045899474256,138.24884792626727,0.3134658721314928,0,0,0,0,0,0,0,0,0,0,0,0.0,0.019736842105263157,1.0,0.05084745762711865
0.08748196165386686,0.08068066654715568,138.24884792626727,0.3116624522473644,0,0,0,0,0,0,0,0,0,0,0,0.0,0.02631578947368421,1.0,0.06779661016949153
0.08882370163737958,0.07118478467374195,138.24884792626727,0.309864588391198,0,0,0,0,0,0,0,0,0,0,0,0.0,0.03289473684210527,1.0,0.0847457627118644
0.07141459645355318,0.062038130065293115,138.24884792626727,0.30807228056299363,0,0,0,0,0,0,0,0,0,0,0,0.0,0.039473684210526314,1.0,0.1016949152542373
0.04340431711964909,0.05346516349380141,138.24884792626727,0.3062855287627512,0,0,0,0,0,0,0,0,0,0,0,0.0,0.046052631578947366,1.0,0.11864406779661017
0.020508423945761987,0.045836305508472126,138.24884792626727,0.30450433299047075,0,0,0,0,0,0,0,0,0,0,0,0.0,0.05263157894736842,1.0,0.13559322033898305
0.011381276341881784,0.03945468932244445,138.24884792626727,0.3027286932461523,0,0,0,0,0,0,0,0,0,0,0,0.0,0.05921052631578947,1.0,0.15254237288135594
0.012775407117004232,0.03434431695845836,138.24884792626727,0.30095860952979586,0,0,0,0,0,0,0,0,0,0,0,0.0,0.06578947368421054,1.0,0.1694915254237288
0.016298469699257512,0.030254141810624892,138.24884792626727,0.29919408184140145,0,0,0,0,0,0,0,0,0,0,0,0.0,0.07236842105263158,1.0,0.1864406779661017
0.01695186399395243,0.026867398177746478,138.24884792626727,0.297435110180969,0,0,0,0,0,0,0,0,0,0,0,0.0,0.07894736842105263,1.0,0.2033898305084746
0.015219797399106713,0.02403155930650208,138.24884792626727,0.2956816945484986,0,0,0,0,0,0,0,0,0,0,0,0.0,0.08552631578947366,1.0,0.22033898305084745
0.013683897044622678,0.021821409007164446,138.24884792626727,0.2939338349439901,0,0,0,0,0,0,0,0,0,0,0,0.0,0.09210526315789473,1.0,0.23728813559322035
0.013759010641616394,0.020395270967319672,138.24884792626727,0.2921915313674436,0,0,0,0,0,0,0,0,0,0,0,0.0,0.09868421052631579,1.0,0.2542372881355932
0.015171487873311688,0.01978204448102067,138.24884792626727,0.2904547838188591,0,0,0,0,0,0,0,0,0,0,0,0.0,0.10526315789473684,1.0,0.2711864406779661
0.01692012831769099,0.019790180371303517,138.24884792626727,0.2887235922982366,0,0,0,0,0,0,0,1,0,0,0,0.0,0.11184210526315788,1.0,0.288135593220339
0.018125587340830692,0.020104499548408105,138.24884792626727,0.28699795680557605,0,0,0,0,0,0,0,0,0,0,0,0.0,0.11842105263157894,1.0,0.3050847457627119
0.018398285846582034,0.020462056571913367,138.24884792626727,0.2852778773408775,0,0,0,0,0,0,0,0,0,0,0,0.0,0.125,1.0,0.3220338983050847
0.017852412781843505,0.020753850130885425,138.24884792626727,0.28356335390414106,0,0,0,0,0,0,0,0,0,0,0,0.0,0.13157894736842107,1.0,0.3389830508474576
0.016967171152853056,0.02100408430613459,138.24884792626727,0.2818543864953664,0,0,0,0,0,0,0,0,0,0,0,0.0,0.1381578947368421,1.0,0.3559322033898306
0.016440401631498295,0.02129076200229973,138.24884792626727,0.28015097511455384,0,0,0,0,0,0,0,0,0,0,0,0.0,0.14473684210526316,1.0,0.3728813559322034
0.016879257944039473,0.021683703534877818,138.24884792626727,0.2784531197617033,0,0,0,0,0,0,0,0,0,0,0,0.0,0.1513157894736842,1.0,0.38983050847457634
0.018301955724071648,0.022224645838852745,138.24884792626727,0.27676082043681477,0,0,0,0,0,0,0,0,0,0,0,0.0,0.15789473684210525,1.0,0.4067796610169492
0.02000033499957996,0.02293801543916547,138.24884792626727,0.27507407713988813,0,0,0,0,0,0,0,0,0,0,0,0.0,0.1644736842105263,1.0,0.423728813559322
0.021079438919784498,0.023852907571775692,138.24884792626727,0.2733928898709236,0,0,0,0,0,0,0,0,0,0,0,0.0,0.17105263157894732,1.0,0.4406779661016949
0.0210690514475943,0.025018586524170397,138.24884792626727,0.27171725862992097,0,0,0,0,0,0,0,0,0,0,0,0.0,0.17763157894736845,1.0,0.4576271186440678
0.020081279220765455,0.026509908609266015,138.24884792626727,0.2700471834168804,0,0,0,0,0,0,0,0,0,0,0,0.0,0.18421052631578946,1.0,0.4745762711864407
0.01885365265402858,0.02843216504458524,138.24884792626727,0.26838266423180174,0,0,0,0,0,0,0,0,0,0,0,0.0,0.1907894736842105,1.0,0.49152542372881364
0.018788143060125474,0.030919717525351796,138.24884792626727,0.2667237010746851,0,0,0,0,0,0,0,0,0,0,0,0.0,0.19736842105263158,1.0,0.5084745762711864
0.02129484623410814,0.034106983848297155,138.24884792626727,0.26507029394553044,0,0,0,0,0,0,0,0,0,0,0,0.0,0.20394736842105263,1.0,0.5254237288135594
0.026569902319699978,0.038083304844289345,138.24884792626727,0.26342244284433786,0,0,0,0,0,0,0,0,0,0,0,0.0,0.21052631578947367,1.0,0.5423728813559322
0.03335333223661814,0.042885707408838444,138.24884792626727,0.26178014777110714,0,0,0,0,0,0,0,0,0,0,0,0.0,0.21710526315789472,1.0,0.559322033898305
0.0401772371715283,0.04855054919763174,138.24884792626727,0.2601434087258385,0,0,0,0,0,0,0,0,0,1,0,0.0,0.22368421052631576,1.0,0.576271186440678
0.04640836157785193,0.05516599992570858,138.24884792626727,0.2585122257085318,0,0,0,0,0,0,0,0,0,0,0,0.0,0.23026315789473684,1.0,0.5932203389830508
0.05208047612408555,0.06286086350264304,138.24884792626727,0.25688659871918706,0,0,0,0,0,0,0,0,0,0,0,0.0,0.23684210526315788,1.0,0.6101694915254238
0.05779664655074089,0.07173898104993129,138.24884792626727,0.2552665277578044,0,0,0,0,0,0,0,0,0,0,0,0.0,0.24342105263157893,1.0,0.6271186440677966
0.06514471868742398,0.08180717048703808,138.24884792626727,0.2536520128243837,0,0,0,0,0,0,0,0,0,0,0,0.0,0.25,1.0,0.6440677966101694
0.07585288977174331,0.0929160487146472,138.24884792626727,0.252043053918925,0,0,0,0,0,0,0,0,0,0,0,0.0,0.256578947368421,1.0,0.6610169491525424
0.08970947586550806,0.10472408940938255,138.24884792626727,0.25043965104142824,0,0,0,0,0,0,0,0,0,0,0,0.0,0.26315789473684215,1.0,0.6779661016949152
0.10454215881804418,0.11672246455813208,138.24884792626727,0.24884180419189353,0,0,0,0,0,0,0,0,0,0,0,0.0,0.26973684210526316,1.0,0.6949152542372883
0.11932168129807733,0.12833090573752623,138.24884792626727,0.24724951337032078,0,0,0,0,0,0,0,0,0,0,0,0.0,0.2763157894736842,1.0,0.7118644067796612
0.13608540097493407,0.13898835184841685,138.24884792626727,0.24566277857671004,0,0,0,0,0,0,0,0,0,0,0,0.0,0.28289473684210525,1.0,0.7288135593220338
0.15712743450851166,0.14815072038775223,138.24884792626727,0.24408159981106128,0,0,0,0,0,0,0,0,0,0,0,0.0,0.2894736842105263,1.0,0.7457627118644068
0.18077164429863682,0.15522407259422222,138.24884792626727,0.24250597707337448,0,0,0,0,0,0,0,0,0,0,0,0.0,0.2960526315789474,1.0,0.7627118644067797
0.20142083027455143,0.1595559864762988,138.24884792626727,0.24093591036364972,0,0,0,0,0,0,0,0,1,0,0,0.0,0.3026315789473684,1.0,0.7796610169491527
0.21354529856177473,0.160548248031523,138.24884792626727,0.23937139968188695,0,0,0,0,0,0,0,0,0,0,0,0.0,0.30921052631578944,1.0,0.7966101694915254
0.21429085250961474,0.15782475670767065,138.24884792626727,0.23781244502808616,0,0,0,0,0,0,0,0,0,0,0,0.0,0.3157894736842105,1.0,0.8135593220338984
0.20278213565345993,0.15134987759778057,138.24884792626727,0.23625904640224735,0,0,0,0,0,0,0,0,0,0,0,0.0,0.3223684210526316,1.0,0.8305084745762711
0.17967796223945295,0.14145089625718293,138.24884792626727,0.23471120380437047,0,0,0,0,0,0,0,0,0,0,0,0.0,0.3289473684210526,1.0,0.847457627118644
0.14880972812190524,0.1287485759489383,138.24884792626727,0.23316891723445562,0,0,0,0,0,0,0,0,0,0,0,0.0,0.3355263157894736,1.0,0.864406779661017
0.11698755194534126,0.11401663477308718,138.24884792626727,0.23163218669250285,0,0,0,0,0,0,0,0,0,0,0,0.0,0.34210526315789463,1.0,0.8813559322033898
0.08932325531915204,0.09803046596064714,138.24884792626727,0.23010101217851198,0,0,0,0,0,0,0,0,0,0,0,0.0,0.3486842105263158,1.0,0.8983050847457628
0.06518948494390141,0.08150006578495053,138.24884792626727,0.22857539369248311,0,0,0,0,0,0,0,0,0,0,0,0.0,0.3552631578947369,1.0,0.9152542372881356
0.041004523972923104,0.06511434654658207,138.24884792626727,0.2270553312344162,0,0,0,0,0,0,0,0,0,0,0,0.0,0.36184210526315785,1.0,0.9322033898305085
0.016809323527877104,0.049593240076493614,138.24884792626727,0.2255408248043114,0,0,0,0,0,0,0,0,0,0,0,0.0,0.3684210526315789,1.0,0.9491525423728814
-0.0022680237610788094,0.03562556100322804,138.24884792626727,0.22403187440216846,0,0,0,0,0,0,0,0,0,0,0,0.0,0.375,1.0,0.9661016949152543
-0.01168853751902703,0.02371002496846452,138.24884792626727,0.22252848002798756,0,0,0,0,0,0,0,0,0,0,0,0.0,0.381578947368421,1.0,0.9830508474576273
-0.012685646206877557,0.014037935330738613,138.24884792626727,0.22103064168176867,0,0,0,0,0,0,0,0,0,0,0,0.0,0.3881578947368421,1.0,1.0
-0.010674312847108323,0.006510545692559611,138.24884792626727,0.21953835936351176,0,0,0,0,0,0,0,0,0,0,1,0.0,0.39473684210526316,0.0,0.0
-0.009871714652321036,0.0008536457181077227,138.24884792626727,0.21805163307321684,0,0,0,0,0,0,0,0,0,0,0,0.0,0.4013157894736842,0.0,0.00641025641025641
-0.01075632759929035,-0.003260629000440502,138.24884792626727,0.21657046281088385,0,0,0,0,0,0,0,0,0,0,0,0.0,0.40789473684210525,0.0,0.01282051282051282
-0.011849075001578618,-0.006136361617795136,138.24884792626727,0.21509484857651293,0,0,0,0,0,0,0,0,0,0,0,0.0,0.41447368421052627,0.0,0.019230769230769232
-0.012267481620962924,-0.008031952113333202,138.24884792626727,0.21362479037010396,0,0,0,0,0,0,0,0,0,0,0,0.0,0.42105263157894735,0.0,0.02564102564102564
-0.01228849323586379,-0.009183710746279295,138.24884792626727,0.21216028819165703,0,0,0,0,0,0,0,0,0,0,0,0.0,0.4276315789473684,0.0,0.03205128205128205
-0.012446680806515151,-0.009836265379263694,138.24884792626727,0.21070134204117205,0,0,0,0,0,0,0,0,0,0,0,0.0,0.43421052631578944,0.0,0.038461538461538464
-0.012854343640291794,-0.01023189085964986,138.24884792626727,0.2092479519186491,0,0,0,0,0,0,0,0,0,0,0,0.0,0.4407894736842105,0.0,0.04487179487179487
-0.013310653961307973,-0.010557098284143555,138.24884792626727,0.20780011782408808,0,0,0,0,0,0,0,0,0,0,0,0.0,0.4473684210526315,0.0,0.05128205128205128
-0.013670859511673707,-0.01090063197774508,138.24884792626727,0.2063578397574891,0,0,0,0,0,0,0,0,0,0,0,0.0,0.4539473684210526,0.0,0.05769230769230768
-0.01396511880937594,-0.011267931810586645,138.24884792626727,0.20492111771885207,0,0,0,0,0,0,0,0,0,0,0,0.0,0.4605263157894737,0.0,0.0641025641025641
-0.014278195497970578,-0.01163523743501405,138.24884792626727,0.20348995170817702,0,0,0,0,0,0,0,0,0,0,0,0.0,0.46710526315789475,0.0,0.07051282051282051
-0.01463362766038546,-0.0119921805863268,138.24884792626727,0.202064341725464,0,0,0,0,0,0,0,0,0,0,0,0.0,0.47368421052631576,0.0,0.07692307692307693
-0.014994891307701746,-0.012346952029499621,138.24884792626727,0.20064428777071294,0,0,0,0,0,0,0,0,0,0,0,0.0,0.48026315789473684,0.0,0.08333333333333333
-0.015329028178607705,-0.012708544576707427,138.24884792626727,0.19922978984392392,0,0,0,0,0,0,0,0,0,0,0,0.0,0.48684210526315785,0.0,0.08974358974358974
-0.015648945335573754,-0.013073041044628204,138.24884792626727,0.1978208479450968,0,0,0,0,0,0,0,0,0,0,0,0.0,0.4934210526315789,0.0,0.09615384615384615
-0.01599767394993716,-0.013428449876743099,138.24884792626727,0.19641746207423177,0,0,0,0,0,0,0,0,0,0,0,0.0,0.5,0.0,0.10256410256410256
-0.016386831723951778,-0.013774775802112808,138.24884792626727,0.19501963223132868,0,0,0,0,0,0,0,0,0,0,0,0.0,0.506578947368421,0.0,0.10897435897435898
-0.01675344137240014,-0.01414387081721975,138.24884792626727,0.1936273584163876,0,0,0,0,0,0,0,0,0,0,0,0.0,0.513157894736842,0.0,0.11538461538461536
-0.017020801598717696,-0.014605796828497764,138.24884792626727,0.19224064062940852,0,0,0,0,0,0,0,0,0,0,0,0.0,0.5197368421052632,0.0,0.12179487179487179
-0.01724469012093169,-0.015262716625013021,138.24884792626727,0.1908594788703914,0,0,0,0,0,0,0,0,0,0,0,0.0,0.5263157894736843,0.0,0.1282051282051282
-0.01763668708390642,-0.0162352135862175,138.24884792626727,0.18948387313933632,0,0,0,0,0,0,0,0,0,0,0,0.0,0.5328947368421052,0.0,0.1346153846153846
-0.01828208734519285,-0.01763509762629687,138.24884792626727,0.18811382343624317,0,0,0,0,0,0,0,0,0,0,0,0.0,0.5394736842105263,0.0,0.14102564102564102
-0.018811221362182197,-0.019526346133848828,138.24884792626727,0.18674932976111205,0,0,0,0,0,0,0,0,0,0,0,0.0,0.5460526315789473,0.0,0.14743589743589744
-0.018669443577035455,-0.021904480612098154,138.24884792626727,0.1853903921139429,0,0,0,0,0,0,0,0,0,0,0,0.0,0.5526315789473684,0.0,0.15384615384615385
-0.01808918456253258,-0.02471837917229937,138.24884792626727,0.18403701049473575,0,0,0,0,0,0,0,0,0,0,0,0.0,0.5592105263157895,0.0,0.16025641025641024
-0.0186290015749811,-0.027905063368111147,138.24884792626727,0.18268918490349056,0,0,0,0,0,0,0,0,0,0,0,0.0,0.5657894736842105,0.0,0.16666666666666666
-0.022184928891937575,-0.031386849032297014,138.24884792626727,0.18134691534020742,0,0,0,0,0,0,0,0,0,0,0,0.0,0.5723684210526315,0.0,0.17307692307692307
-0.029468103968006327,-0.03503327306896266,138.24884792626727,0.1800102018048862,0,0,0,0,0,0,0,0,0,0,0,0.0,0.5789473684210527,0.0,0.1794871794871795
-0.03985897373220178,-0.038637901815861284,138.24884792626727,0.17867904429752704,0,0,0,0,0,0,0,0,0,0,0,0.0,0.5855263157894738,0.0,0.18589743589743588
-0.05207090587408185,-0.0419346252309966,138.24884792626727,0.17735344281812984,0,0,0,0,0,0,0,0,0,0,0,0.0,0.5921052631578948,0.0,0.1923076923076923
-0.06372289147072649,-0.04463799536016362,138.24884792626727,0.1760333973666946,0,0,0,0,0,0,0,0,0,0,0,0.0,0.5986842105263157,0.0,0.1987179487179487
-0.07105607611824111,-0.046499573029964957,138.24884792626727,0.1747189079432214,0,0,0,0,0,0,0,0,0,0,0,0.0,0.6052631578947368,0.0,0.20512820512820512
-0.07130530873791452,-0.04737532536198883,138.24884792626727,0.17340997454771015,0,0,0,0,0,0,0,0,0,0,0,0.0,0.6118421052631579,0.0,0.2115384615384615
-0.06557550581170116,-0.047261971862717224,138.24884792626727,0.17210659718016091,0,0,0,0,0,0,0,0,0,0,0,0.0,0.6184210526315789,0.0,0.21794871794871795
-0.0577973048561688,-0.04626201443851366,138.24884792626727,0.17080877584057366,0,0,0,0,0,0,0,0,0,0,0,0.0,0.625,0.0,0.22435897435897434
-0.050759872878685414,-0.04451168943783547,138.24884792626727,0.1695165105289484,0,0,0,0,0,0,0,0,0,0,0,0.0,0.631578947368421,0.0,0.23076923076923073
-0.04443633995183334,-0.04214623653647556,138.24884792626727,0.1682298012452851,0,0,0,0,0,0,0,0,0,0,0,0.0,0.638157894736842,0.0,0.2371794871794872
-0.03799279449655683,-0.03931796614959039,138.24884792626727,0.16694864798958386,0,0,0,0,0,0,0,0,0,0,0,0.0,0.6447368421052632,0.0,0.24358974358974358
-0.03189625032370304,-0.036217074082317315,138.24884792626727,0.16567305076184458,0,0,0,0,0,0,0,0,0,0,0,0.0,0.6513157894736842,0.0,0.25
-0.027551511844383595,-0.03305922261247866,138.24884792626727,0.1644030095620673,0,0,0,0,0,0,0,0,0,0,0,0.0,0.6578947368421052,0.0,0.2564102564102564
-0.02561965036543426,-0.030049798648575276,138.24884792626727,0.16313852439025195,0,0,0,0,0,0,0,0,0,0,0,0.0,0.6644736842105262,0.0,0.26282051282051283
-0.025237413635225983,-0.02734503407570219,138.24884792626727,0.16187959524639867,0,0,0,0,0,0,0,0,0,0,0,0.0,0.6710526315789472,0.0,0.2692307692307692
-0.02487877802563801,-0.025023217770551037,138.24884792626727,0.16062622213050734,0,0,0,0,0,0,0,0,0,0,0,0.0,0.6776315789473683,0.0,0.2756410256410256
-0.023811223553060853,-0.023081900573248892,138.24884792626727,0.15937840504257797,0,0,0,0,0,0,0,0,0,0,0,0.0,0.6842105263157893,0.0,0.28205128205128205
-0.022458798894922354,-0.021466008383698536,138.24884792626727,0.15813614398261064,0,0,0,0,0,0,0,0,0,0,0,0.0,0.6907894736842106,0.0,0.28846153846153844
-0.021368169329658394,-0.02010498649832403,138.24884792626727,0.15689943895060524,0,0,0,0,0,0,0,0,0,0,0,0.0,0.6973684210526316,0.0,0.2948717948717949
-0.02039630192347528,-0.0189334286750215,138.24884792626727,0.15566828994656196,0,0,0,0,0,0,0,0,0,0,0,0.0,0.7039473684210525,0.0,0.30128205128205127
-0.01924570112119581,-0.017892827304040602,138.24884792626727,0.15444269697048058,0,0,0,0,0,0,0,0,0,0,0,0.0,0.7105263157894738,0.0,0.3076923076923077
-0.01822805588167295,-0.01692646485195856,138.24884792626727,0.15322515478983142,0,0,0,0,0,0,0,0,0,0,0,0.0,0.7171052631578947,0.0,0.3141025641025641
-0.017865423132692133,-0.015976574468105496,138.24884792626727,0.15203063200943592,0,0,0,0,0,0,0,0,0,0,0,0.0,0.7236842105263157,0.0,0.3205128205128205
-0.017972988998144753,-0.014989213040944976,138.24884792626727,0.15086162339676432,0,0,0,0,0,0,0,0,0,0,0,0.0,0.7302631578947368,0.0,0.3269230769230769
-0.017704304874640354,-0.013926559873104765,138.24884792626727,0.1497181289518166,0,0,0,0,0,0,0,0,0,0,0,0.0,0.7368421052631579,0.0,0.3333333333333333
-0.016492971764236284,-0.012775086699384467,138.24884792626727,0.1486001486745928,0,0,0,0,0,0,0,0,0,0,0,0.0,0.7434210526315789,0.0,0.33974358974358976
-0.014580342847479059,-0.011539092276448431,138.24884792626727,0.14750768256509286,0,0,0,0,0,0,0,0,0,0,0,0.0,0.75,0.0,0.34615384615384615
-0.01259831163288798,-0.01022728271697411,138.24884792626727,0.14644073062331683,0,0,0,0,0,0,0,0,0,0,0,0.0,0.756578947368421,0.0,0.35256410256410253
-0.010913948160709171,-0.008847796679393768,138.24884792626727,0.1453992928492647,0,0,0,0,0,0,0,0,0,0,0,0.0,0.763157894736842,0.0,0.358974358974359
-0.009443073574559376,-0.007411621969064886,138.24884792626727,0.14438336924293646,0,0,0,0,0,0,0,0,0,0,0,0.0,0.7697368421052632,0.0,0.3653846153846153
-0.007913752736176442,-0.005932709671691162,138.24884792626727,0.1433929598043321,0,0,0,0,0,0,0,0,0,0,0,0.0,0.7763157894736842,0.0,0.37179487179487175
-0.0061984103905639125,-0.004423597297079649,138.24884792626727,0.1424280645334516,0,0,0,0,0,0,0,0,0,0,0,0.0,0.7828947368421052,0.0,0.37820512820512825
-0.004423661615837426,-0.0028963725278166002,138.24884792626727,0.14148868343029503,0,0,0,0,0,0,0,0,0,0,0,0.0,0.7894736842105263,0.0,0.3846153846153846
-0.0027886748516030404,-0.0013695384738210145,138.24884792626727,0.14057481649486236,0,0,0,0,0,0,0,0,0,0,0,0.0,0.7960526315789473,0.0,0.391025641025641
-0.0012808069390415273,0.00013141659757117622,138.24884792626727,0.13968646372715357,0,0,0,0,0,0,0,0,0,0,0,0.0,0.8026315789473684,0.0,0.3974358974358974
0.0003532575247603245,0.001584675936766661,138.24884792626727,0.1388236251271687,0,0,0,0,0,0,0,0,0,0,0,0.0,0.8092105263157895,0.0,0.40384615384615385
0.0022402587847262854,0.002982546685729553,138.24884792626727,0.13798630069490767,0,0,0,0,0,0,0,0,0,0,0,0.0,0.8157894736842105,0.0,0.41025641025641024
0.004037939531542837,0.004329118368469558,138.24884792626727,0.13717449043037055,0,0,0,0,0,0,0,0,0,0,0,0.0,0.8223684210526315,0.0,0.4166666666666667
0.005217164850600087,0.005624649636369629,138.24884792626727,0.1363881943335573,0,0,0,0,0,0,0,0,0,0,0,0.0,0.8289473684210525,0.0,0.423076923076923
0.005791846183266456,0.00684690366156921,138.24884792626727,0.135627412404468,0,0,0,0,0,0,0,0,0,0,0,0.0,0.8355263157894737,0.0,0.42948717948717957
0.006446043879688308,0.007947283606082796,138.24884792626727,0.13489214464310256,0,0,0,0,0,0,0,0,0,0,0,0.0,0.8421052631578947,0.0,0.4358974358974359
0.007650222545648702,0.008877864967367527,138.24884792626727,0.134182391049461,0,0,0,0,0,0,0,0,0,0,0,0.0,0.8486842105263157,0.0,0.4423076923076923
0.008986683501884859,0.009638934637704422,138.24884792626727,0.13349815162354337,0,0,0,0,0,0,0,0,0,0,0,0.0,0.8552631578947368,0.0,0.4487179487179487
0.009815302989204551,0.010304897673641731,138.24884792626727,0.1328394263653496,0,0,0,0,0,0,0,0,0,0,0,0.0,0.8618421052631579,0.0,0.4551282051282051
0.010380586242371925,0.010998980022672088,138.24884792626727,0.13220621527487975,0,0,0,0,0,0,0,0,0,0,0,0.0,0.8684210526315789,0.0,0.46153846153846145
0.011668002455323625,0.011841742493992061,138.24884792626727,0.13159851835213376,0,0,0,0,0,0,0,0,0,0,0,0.0,0.875,0.0,0.46794871794871795
0.013938234351853492,0.012926311472417839,138.24884792626727,0.13101633559711168,0,0,0,0,0,0,0,0,0,0,0,0.0,0.881578947368421,0.0,0.4743589743589744
0.015577335359214987,0.014340072989518969,138.24884792626727,0.13045966700981346,0,0,0,0,0,0,0,0,0,0,0,0.0,0.888157894736842,0.0,0.4807692307692307
0.014027645031364201,0.016205808661651395,138.24884792626727,0.12992851259023916,0,0,0,0,0,0,0,0,0,0,0,0.0,0.894736842105263,0.0,0.48717948717948717
0.008846354311128483,0.018702560877276342,138.24884792626727,0.12942287233838876,0,0,0,0,0,0,0,0,0,0,0,0.0,0.9013157894736842,0.0,0.49358974358974356
0.0038328833219246515,0.022042993070569516,138.24884792626727,0.12894274625426222,0,0,0,0,0,0,0,0,0,0,0,0.0,0.9078947368421052,0.0,0.5
0.004554491963083937,0.026418422868208544,138.24884792626727,0.1284881343378596,0,0,1,0,0,0,0,0,0,0,0,0.0,0.9144736842105262,0.0,0.5064102564102564
0.012893074903179706,0.03196136186239163,138.24884792626727,0.12805903658918086,0,0,0,0,0,0,0,0,0,0,0,0.0,0.9210526315789473,0.0,0.5128205128205128
0.02523782573580656,0.03876459864264388,138.24884792626727,0.127655453008226,0,0,0,0,0,0,0,0,0,0,0,0.0,0.9276315789473685,0.0,0.5192307692307692
0.0369165088522969,0.04692139266009009,138.24884792626727,0.12727738359499502,0,0,0,0,0,0,0,0,0,0,0,0.0,0.9342105263157895,0.0,0.5256410256410257
0.047169818633855214,0.05651262706237293,138.24884792626727,0.12692482834948798,0,0,0,0,0,0,0,0,0,0,0,0.0,0.9407894736842105,0.0,0.5320512820512822
0.058561787401205746,0.0675342981770394,138.24884792626727,0.12659778727170481,0,0,0,0,0,0,0,0,0,0,0,0.0,0.9473684210526315,0.0,0.5384615384615384
0.07232037312616948,0.07983862845359885,138.24884792626727,0.12629626036164557,0,0,0,0,0,0,0,0,0,0,0,0.0,0.9539473684210525,0.0,0.5448717948717948
0.08594590856785737,0.09313797023579927,138.24884792626727,0.12602024761931016,0,0,0,0,0,0,0,0,0,0,0,0.0,0.9605263157894737,0.0,0.5512820512820512
0.09627489153619105,0.10703781018708913,138.24884792626727,0.12576974904469865,0,0,0,0,0,0,0,0,0,0,0,0.0,0.9671052631578947,0.0,0.5576923076923077
0.10472541661132038,0.12104759722824784,138.24884792626727,0.12554476463781106,0,0,0,0,0,0,0,0,0,0,0,0.0,0.9736842105263157,0.0,0.5641025641025641
0.11821551629271973,0.13457248068241906,138.24884792626727,0.12534529439864733,0,0,0,0,0,0,0,0,0,0,0,0.0,0.9802631578947368,0.0,0.5705128205128205
0.14283498178216783,0.14692133584198727,138.24884792626727,0.12517133832720753,0,0,0,0,0,0,0,0,0,0,0,0.0,0.9868421052631579,0.0,0.5769230769230769
0.17602171045806558,0.15735146671766959,138.24884792626727,0.1250228964234916,0,0,0,0,0,0,0,0,0,0,0,0.0,0.9934210526315789,0.0,0.5833333333333333
0.20690200936488398,0.16515515249173648,138.24884792626727,0.12489996868749959,0,0,0,0,0,0,0,0,0,0,0,0.0,1.0,0.0,0.5897435897435898
0.22572074641450496,0.16977365334801867,138.24884792626727,0.1248025551192314,0,1,0,0,0,0,0,0,0,0,0,1.0,0.0,0.0,0.5961538461538461
0.23145659773513802,0.17088347351328004,138.24884792626727,0.12473065571868719,0,0,0,0,0,0,0,0,0,0,0,1.0,0.015873015873015872,0.0,0.6025641025641025
0.22856980307558744,0.16840078158249047,138.24884792626727,0.1246842704858668,0,0,0,0,0,0,0,0,0,0,0,1.0,0.031746031746031744,0.0,0.6089743589743589
0.217919130951058,0.1624314902461428,138.24884792626727,0.12466339942077034,0,0,0,0,0,0,0,0,0,0,0,1.0,0.047619047619047616,0.0,0.6153846153846154
0.19470317980641982,0.15325683311851887,138.24884792626727,0.12466804252339775,0,0,0,0,0,0,0,0,0,0,0,1.0,0.06349206349206349,0.0,0.6217948717948718
0.15713253318665538,0.1413800953617071,138.24884792626727,0.12469819979374906,0,0,0,0,0,0,0,0,0,0,0,1.0,0.07936507936507936,0.0,0.6282051282051282
0.11427855288385558,0.12754149719825403,138.24884792626727,0.12475387123182427,0,0,0,0,0,0,0,0,0,0,0,1.0,0.09523809523809523,0.0,0.6346153846153846
0.08090920154696726,0.1126101342943198,138.24884792626727,0.12483505683762339,0,0,0,0,0,0,0,0,0,0,0,1.0,0.1111111111111111,0.0,0.641025641025641
0.06416572566608188,0.09739924151949354,138.24884792626727,0.12494175661114637,0,0,0,0,0,0,0,0,0,0,0,1.0,0.12698412698412698,0.0,0.6474358974358975
0.05837355794430278,0.08253963827530061,138.24884792626727,0.12507397055239325,0,0,0,0,0,0,0,0,0,0,0,1.0,0.14285714285714285,0.0,0.6538461538461539
0.053408043966311235,0.06847614339534354,138.24884792626727,0.12523169866136402,0,0,0,0,0,0,0,0,0,0,0,1.0,0.15873015873015872,0.0,0.6602564102564102
0.04510453619988268,0.055531947811149666,138.24884792626727,0.1254149409380587,0,0,0,0,0,0,0,0,0,0,0,1.0,0.1746031746031746,0.0,0.6666666666666666
0.03616352890735225,0.04395376267147223,138.24884792626727,0.12562369738247725,0,0,0,0,0,0,0,0,0,0,0,1.0,0.19047619047619047,0.0,0.673076923076923
0.029359909191411262,0.03390300595236065,138.24884792626727,0.1258579679946197,0,0,0,0,0,0,0,0,0,0,0,1.0,0.20634920634920634,0.0,0.6794871794871795
0.02292743853850331,0.025420520470848584,138.24884792626727,0.12611775277448603,0,0,0,0,0,0,0,0,0,0,0,1.0,0.2222222222222222,0.0,0.6858974358974359
0.01335754072842273,0.018418725310462902,138.24884792626727,0.12640305172207628,0,0,0,1,0,0,0,0,0,0,0,1.0,0.23809523809523808,0.0,0.6923076923076923
0.0010689451662351482,0.012731491934339999,138.24884792626727,0.1267138648373904,0,0,0,0,0,0,0,0,0,0,0,1.0,0.25396825396825395,0.0,0.6987179487179487
-0.00896583806552983,0.008193977662560832,138.24884792626727,0.1270501921204284,0,0,0,0,0,0,0,0,0,0,0,1.0,0.2698412698412698,0.0,0.7051282051282051
-0.012557680509544042,0.00469031770133687,138.24884792626727,0.12741203357119033,0,0,0,0,0,0,0,0,0,0,0,1.0,0.2857142857142857,0.0,0.7115384615384617
-0.010540533785123755,0.0021407341707989857,138.24884792626727,0.12779938918967615,0,0,0,0,0,0,0,0,0,0,0,1.0,0.30158730158730157,0.0,0.717948717948718
-0.006971308045181729,0.0004633010166700754,138.24884792626727,0.12821225897588578,0,0,0,0,0,0,0,0,0,0,0,1.0,0.31746031746031744,0.0,0.7243589743589743
-0.004643162547415959,-0.00043479994767780497,138.24884792626727,0.12865064292981937,0,0,0,0,0,0,0,0,0,0,0,1.0,0.3333333333333333,0.0,0.7307692307692306
-0.0034966875040871002,-0.0006242043811131052,138.24884792626727,0.12911454105147685,0,0,0,0,0,0,0,0,0,0,0,1.0,0.3492063492063492,0.0,0.7371794871794871
-0.0023690758513479483,-0.00012623224713104143,138.24884792626727,0.12960395334085822,0,0,0,0,0,0,0,0,0,0,0,1.0,0.36507936507936506,0.0,0.7435897435897435
-0.000776260505442862,0.0010457615925189214,138.24884792626727,0.1301188797979635,0,0,0,0,0,0,0,0,0,0,0,1.0,0.38095238095238093,0.0,0.75
0.0010416338647287462,0.002780834453374766,138.24884792626727,0.13065932042279266,0,0,0,0,0,0,0,0,0,0,0,1.0,0.39682539682539686,0.0,0.7564102564102565
0.002834052015562147,0.004799690904852202,138.24884792626727,0.13122527521534572,0,0,0,0,0,0,0,0,0,0,0,1.0,0.4126984126984127,0.0,0.7628205128205128
0.004547254386622029,0.006711814541088994,138.24884792626727,0.1318167441756226,0,0,0,0,0,0,0,0,0,0,0,1.0,0.42857142857142855,0.0,0.7692307692307692
0.006129154186217622,0.008153623319847708,138.24884792626727,0.13243372730362346,0,0,0,0,0,0,0,0,0,0,0,1.0,0.4444444444444444,0.0,0.7756410256410257
0.007762906644731431,0.008844233905422829,138.24884792626727,0.13307622459934815,0,0,0,0,0,0,0,0,0,0,0,1.0,0.46031746031746024,0.0,0.782051282051282
0.01058495008222543,0.008461111162921897,138.24884792626727,0.13374423606279678,0,0,0,0,0,0,0,0,0,0,0,1.0,0.47619047619047616,0.0,0.7884615384615383
0.016481079531417496,0.006419799376258949,138.24884792626727,0.13443776169396926,0,0,0,0,0,0,0,0,0,0,0,1.0,0.49206349206349204,0.0,0.7948717948717948
0.025582937071679194,0.0017343297243371863,138.24884792626727,0.13515680149286566,0,0,0,0,0,0,0,0,0,0,0,1.0,0.5079365079365079,0.0,0.8012820512820512
0.03330619037011885,-0.006943374413558809,138.24884792626727,0.13590135545948595,0,0,0,0,0,0,0,0,0,0,0,1.0,0.5238095238095237,0.0,0.8076923076923077
0.03182991966682638,-0.021140685293264683,138.24884792626727,0.13667142359383014,0,0,0,0,0,0,0,0,0,0,0,1.0,0.5396825396825397,0.0,0.8141025641025643
0.017105959508086917,-0.04232339801223266,138.24884792626727,0.1374670058958982,0,0,0,0,0,1,0,0,0,0,0,1.0,0.5555555555555556,0.0,0.8205128205128205
-0.00607235290909268,-0.07164857751195312,138.24884792626727,0.13828810236569017,0,0,0,0,0,0,0,0,0,0,0,1.0,0.5714285714285714,0.0,0.8269230769230769
-0.028969472892990254,-0.10975253252878676,138.24884792626727,0.139134713003206,0,0,0,0,0,0,0,0,0,0,0,1.0,0.5873015873015872,0.0,0.8333333333333334
-0.05030226818875985,-0.15664537891060626,138.24884792626727,0.14000683780844575,0,0,0,0,0,0,0,0,0,0,0,1.0,0.6031746031746031,0.0,0.8397435897435898
-0.08130552728336295,-0.2117268705098636,138.24884792626727,0.14090447678140938,0,0,0,0,0,0,0,0,0,0,0,1.0,0.6190476190476191,0.0,0.846153846153846
-0.13767634157958006,-0.27378673583780266,138.24884792626727,0.1418276299220969,0,0,0,0,0,0,0,0,0,0,0,1.0,0.6349206349206349,0.0,0.8525641025641025
-0.22680921413117291,-0.34084947582952757,138.24884792626727,0.14277629723050833,0,0,0,0,0,0,0,0,0,0,0,1.0,0.6507936507936507,0.0,0.8589743589743591
-0.34455974002308287,-0.4099619222710179,138.24884792626727,0.14375047870664362,0,0,0,0,0,0,0,0,0,0,0,1.0,0.6666666666666666,0.0,0.8653846153846152
-0.48297817453027153,-0.4771830160034703,138.24884792626727,0.14475017435050283,0,0,0,0,0,0,0,0,0,0,0,1.0,0.6825396825396826,0.0,0.8717948717948718
-0.6341031449011214,-0.5378855825873388,138.24884792626727,0.14577538416208594,0,0,0,0,0,0,0,0,0,0,0,1.0,0.6984126984126984,0.0,0.8782051282051282
-0.7810755576114999,-0.5872799841615806,138.24884792626727,0.1468261081413929,0,0,0,0,0,0,0,0,0,0,0,1.0,0.7142857142857142,0.0,0.8846153846153846
-0.8928555781021886,-0.6210764399136691,138.24884792626727,0.1479023462884238,0,0,0,0,0,0,0,0,0,0,0,1.0,0.7301587301587301,0.0,0.8910256410256411
-0.9413747090886493,-0.6361986513015276,138.24884792626727,0.1490040986031786,0,0,0,0,0,0,0,0,0,0,0,1.0,0.7460317460317459,0.0,0.8974358974358974
-0.9255976885714382,-0.6312693321780739,138.24884792626727,0.15013136508565722,0,0,0,0,1,0,0,0,0,0,0,1.0,0.7619047619047619,0.0,0.903846153846154
-0.8682109141712985,-0.6065722228611743,138.24884792626727,0.1512841457358598,0,0,0,0,0,0,0,0,0,0,0,1.0,0.7777777777777776,0.0,0.9102564102564102
-0.7862247835159142,-0.5636185676050076,138.24884792626727,0.15246244055378624,0,0,0,0,0,0,0,0,0,0,0,1.0,0.7936507936507937,0.0,0.9166666666666666
-0.6750699404422181,-0.5048088220171115,138.24884792626727,0.15366624953943656,0,0,0,0,0,0,0,0,0,0,0,1.0,0.8095238095238095,0.0,0.9230769230769229
-0.5255670376288708,-0.43343298239980876,138.24884792626727,0.1548955726928108,0,0,0,0,0,0,0,0,0,0,0,1.0,0.8253968253968254,0.0,0.9294871794871794
-0.3474098196921267,-0.3537341044668,138.24884792626727,0.15615041001390892,0,0,0,0,0,0,0,0,0,0,0,1.0,0.8412698412698412,0.0,0.9358974358974359
-0.16921980728867167,-0.27066548519675027,138.24884792626727,0.15743076150273091,0,0,0,0,0,0,0,0,0,0,0,1.0,0.8571428571428571,0.0,0.9423076923076923
-0.019462694913056376,-0.18930481518073325,138.24884792626727,0.15873662715927683,0,0,0,0,0,0,0,0,0,0,0,1.0,0.8730158730158731,0.0,0.9487179487179488
0.08778532716759309,-0.11414380900734365,138.24884792626727,0.16006800698354662,0,0,0,0,0,0,0,0,0,0,0,1.0,0.8888888888888888,0.0,0.9551282051282051
0.15137269638087658,-0.04848301191912298,138.24884792626727,0.16142490097554033,0,0,0,0,0,0,0,0,0,0,0,1.0,0.9047619047619047,0.0,0.9615384615384615
0.1758853974801701,0.005882836325628811,138.24884792626727,0.16280730913525787,0,0,0,0,0,0,0,0,0,0,0,1.0,0.9206349206349205,0.0,0.967948717948718
0.1705376765793243,0.04857122625809184,138.24884792626727,0.16421523146269934,0,0,0,0,0,0,0,0,0,0,0,1.0,0.9365079365079366,0.0,0.9743589743589743
0.15083508812588464,0.08018694598840083,138.24884792626727,0.16564866795786473,0,0,0,0,0,0,0,0,0,0,0,1.0,0.9523809523809523,0.0,0.9807692307692306
0.1332779133617469,0.10184976977911211,138.24884792626727,0.16710761862075396,0,0,0,0,0,0,0,0,0,0,0,1.0,0.9682539682539683,0.0,0.9871794871794871
0.12572857036006022,0.114929563409742,138.24884792626727,0.16859208345136711,0,0,0,0,0,0,0,0,0,0,0,1.0,0.9841269841269841,0.0,0.9935897435897435
0.12513163980929365,0.12098711883182939,138.24884792626727,0.17010206244970416,0,0,0,0,0,0,0,0,0,0,0,1.0,1.0,0.0,1.0
0.12486747290475277,0.12173032923395824,138.24884792626727,0.1716375556157651,1,0,0,0,0,0,0,0,0,0,0,0.0,0.0,1.0,0.0
0.1221825486266501,0.11885992121254318,138.24891202105016,0.1731985629495499,0,0,0,0,0,0,0,0,0,0,0,0.0,0.006622516556291392,1.0,0.017241379310344827
0.11840398624360367,0.11385809378168013,138.24910362295,0.17478508445105861,0,0,0,0,0,0,0,0,0,0,0,0.0,0.013245033112582783,1.0,0.034482758620689655
0.11462377714980895,0.10784195037646933,138.24942170881437,0.17639712012029124,0,0,0,0,0,0,0,0,0,0,0,0.0,0.019867549668874173,1.0,0.05172413793103448
0.1096211093810755,0.10153114886858947,138.24986525616993,0.1780346699572477,0,0,0,0,0,0,0,0,0,0,0,0.0,0.026490066225165566,1.0,0.06896551724137931
0.10201760173795203,0.09529818966378896,138.2504332432041,0.1796977339619281,0,0,0,0,0,0,0,0,0,0,0,0.0,0.033112582781456956,1.0,0.08620689655172414
0.09260361809456169,0.08926524474086475,138.25112464874633,0.18138631213433243,0,0,0,0,0,0,0,0,0,0,0,0.0,0.039735099337748346,1.0,0.10344827586206896
0.08332090123009792,0.08343314618818255,138.25193845224987,0.18310040447446055,0,0,0,0,0,0,0,0,0,0,0,0.0,0.04635761589403974,1.0,0.1206896551724138
0.07479840548039728,0.07781047197365644,138.25287363377362,0.18484001098231265,0,0,0,0,0,0,0,0,0,0,0,0.0,0.05298013245033113,1.0,0.13793103448275862
0.06623654334550812,0.07248695219696444,138.25392917396408,0.18660513165788858,0,0,0,0,0,0,0,0,0,0,0,0.0,0.05960264900662252,1.0,0.15517241379310345
0.057590754955900825,0.0676234235779793,138.25510405403756,0.18839576650118842,0,0,0,0,0,0,0,0,0,0,0,0.0,0.06622516556291391,1.0,0.1724137931034483
0.05068359375618355,0.06338709164259151,138.2563972557624,0.19021191551221217,0,0,0,0,0,0,0,0,0,0,0,0.0,0.0728476821192053,1.0,0.1896551724137931
0.047588688887609865,0.05988675940018335,138.2578077614416,0.1920535786909598,0,0,0,0,0,0,0,0,0,0,0,0.0,0.07947019867549669,1.0,0.20689655172413793
0.04840658727293756,0.05714409999134516,138.25933455389526,0.19392075603743134,0,0,0,0,0,0,0,0,0,0,0,0.0,0.08609271523178808,1.0,0.22413793103448276
0.051138489984096064,0.05510175400951873,138.2609766164435,0.19581344755162677,0,0,0,0,0,0,0,0,0,0,0,0.0,0.09271523178807949,1.0,0.2413793103448276
0.05349629241074486,0.05365010381829239,138.26273293288926,0.19773165323354602,0,0,0,0,0,0,0,0,0,0,0,0.0,0.09933774834437085,1.0,0.25862068965517243
0.05445402151014341,0.05266032898013941,138.26460248750163,0.19967537308318922,0,0,0,0,0,0,0,0,0,0,0,0.0,0.10596026490066227,1.0,0.27586206896551724
0.0543034586012415,0.05201671857857044,138.26658426499878,0.20164460710055632,0,0,0,0,0,0,0,0,0,0,0,0.0,0.11258278145695363,1.0,0.29310344827586204
0.053780719508634514,0.05163197526175367,138.26867725053168,0.2036393552856473,0,0,0,0,0,0,0,0,0,0,0,0.0,0.11920529801324505,1.0,0.3103448275862069
0.05333749739150631,0.05143258442076342,138.27088042966741,0.2056596176384622,0,0,0,0,0,0,0,0,0,0,0,0.0,0.12582781456953643,1.0,0.3275862068965517
0.05303053990226405,0.05133452431840899,138.273192788373,0.20770539415900094,0,0,0,0,0,0,0,0,0,0,0,0.0,0.13245033112582782,1.0,0.3448275862068966
0.052781342701778595,0.05125365771305488,138.27561331299927,0.2097766848472636,0,0,0,0,0,0,0,0,0,0,0,0.0,0.1390728476821192,1.0,0.3620689655172414
0.05253730958001483,0.051161673178338744,138.2781409902648,0.21187348970325015,0,0,0,0,0,0,0,0,0,0,0,0.0,0.1456953642384106,1.0,0.3793103448275862
0.052217275157045474,0.05113095986231638,138.28077480724025,0.2139958087269606,0,0,0,0,0,0,0,0,0,0,0,0.0,0.152317880794702,1.0,0.39655172413793105
0.05172188527485583,0.05130273843859008,138.2835137513324,0.21614364191839494,0,0,0,0,0,0,0,1,0,0,0,0.0,0.15894039735099338,1.0,0.41379310344827586
0.05115885479045093,0.05180063803853368,138.28635681026904,0.21831698927755314,0,0,0,0,0,0,0,0,0,0,0,0.0,0.16556291390728478,1.0,0.43103448275862066
0.050917105963851954,0.052690575668228636,138.28930297208314,0.22051585080443528,0,0,0,0,0,0,0,0,0,0,0,0.0,0.17218543046357615,1.0,0.4482758620689655
0.051168863020160486,0.054034910128169626,138.29235122509795,0.22274022649904124,0,0,0,0,0,0,0,0,0,0,0,0.0,0.17880794701986755,1.0,0.46551724137931033
0.05129432110192219,0.05596674295144911,138.29550055791185,0.22499011636137123,0,0,0,0,0,0,0,0,0,0,0,0.0,0.18543046357615897,1.0,0.4827586206896552
0.05056746691469935,0.058691150315772586,138.2987499593834,0.227265520391425,0,0,0,0,0,0,0,0,0,0,0,0.0,0.19205298013245037,1.0,0.5
0.05018551801916076,0.062417254120285634,138.3020984186165,0.22956643858920267,0,0,0,0,0,0,0,0,0,0,0,0.0,0.1986754966887417,1.0,0.5172413793103449
0.05376304426855134,0.06728789521566352,138.305544924946,0.23189287095470423,0,0,0,0,0,0,0,0,0,0,0,0.0,0.2052980132450331,1.0,0.5344827586206896
0.06360870002032465,0.07335045724169675,138.30908846792295,0.2342448174879297,0,0,0,0,0,0,0,0,0,0,0,0.0,0.21192052980132453,1.0,0.5517241379310345
0.07627270270897797,0.08058865272883618,138.31272803730053,0.23662227818887907,0,0,0,0,0,0,0,0,0,1,0,0.0,0.21854304635761593,1.0,0.5689655172413793
0.0849128361733075,0.08901657023317555,138.3164626230197,0.23902525305755234,0,0,0,0,0,0,0,0,0,0,0,0.0,0.22516556291390727,1.0,0.5862068965517241
0.08802057643551173,0.0987588982177753,138.32029121519534,0.24145374209394946,0,0,0,0,0,0,0,0,0,0,0,0.0,0.2317880794701987,1.0,0.603448275862069
0.09281513303314201,0.10998761745646593,138.32421280410222,0.24390774529807047,0,0,0,0,0,0,0,0,0,0,0,0.0,0.2384105960264901,1.0,0.6206896551724138
0.10677926692011554,0.12270114788210659,138.3282263801614,0.2463872626699154,0,0,0,0,0,0,0,0,0,0,0,0.0,0.24503311258278143,1.0,0.6379310344827586
0.12806044376263404,0.13652632777235216,138.3323309339266,0.24889229420948425,0,0,0,0,0,0,0,0,0,0,0,0.0,0.25165562913907286,1.0,0.6551724137931034
0.14796205149949518,0.15073915948210478,138.33652545607083,0.25142283991677694,0,0,0,0,0,0,0,0,0,0,0,0.0,0.2582781456953642,1.0,0.6724137931034483
0.161789100612753,0.16449474377439854,138.34080893737305,0.25397889979179356,0,0,0,0,0,0,0,0,0,0,0,0.0,0.26490066225165565,1.0,0.6896551724137931
0.1739316189106907,0.17706847837254852,138.34518036870512,0.25656047383453406,0,0,0,0,0,0,0,0,0,0,0,0.0,0.271523178807947,1.0,0.7068965517241378
0.19223812147688,0.1879281150769134,138.3496387410187,0.2591675620449984,0,0,0,0,0,0,0,0,0,0,0,0.0,0.2781456953642384,1.0,0.7241379310344828
0.21929492206257306,0.19662559458605278,138.35418304533263,0.2618001644231867,0,0,0,0,0,0,1,0,0,0,0,0.0,0.2847682119205298,1.0,0.7413793103448276
0.24953933063983416,0.2026510611833003,138.35881227271997,0.26445828096909885,0,0,0,0,0,0,0,0,0,0,0,0.0,0.2913907284768212,1.0,0.7586206896551724
0.27351582478043607,0.2054119300960892,138.36352541429576,0.26714191168273493,0,0,0,0,0,0,0,0,1,0,0,0.0,0.2980132450331126,1.0,0.7758620689655172
0.28318858612935077,0.20438551867893875,138.3683214612044,0.2698510565640949,0,0,0,0,0,0,0,0,0,0,0,0.0,0.304635761589404,1.0,0.7931034482758621
0.27354883095001614,0.19935498270039273,138.37319940460753,0.2725857156131787,0,0,0,0,0,0,0,0,0,0,0,0.0,0.31125827814569534,1.0,0.8103448275862069
0.24358586868144913,0.19058342341860296,138.37815823567195,0.27534588882998645,0,0,0,0,0,0,0,0,0,0,0,0.0,0.31788079470198677,1.0,0.8275862068965517
0.19962592158811385,0.17881077321041045,138.38319694555753,0.27813157621451806,0,0,0,0,0,0,0,0,0,0,0,0.0,0.32450331125827814,1.0,0.8448275862068967
0.15520164829227442,0.1650435154849229,138.38831452540563,0.2809427777667736,0,0,0,0,0,0,0,0,0,0,0,0.0,0.33112582781456956,1.0,0.8620689655172413
0.12268424623747949,0.1502467406723364,138.39350996632731,0.283779493486753,0,0,0,0,0,0,0,0,0,0,0,0.0,0.33774834437086093,1.0,0.8793103448275862
0.1046455733530357,0.13514599362368496,138.39878225939185,0.2866417233744563,0,0,0,0,0,0,0,0,0,0,0,0.0,0.3443708609271523,1.0,0.896551724137931
0.09510950836813102,0.12025175209335057,138.40413039561534,0.2895294674298835,0,0,0,0,0,0,0,0,0,0,0,0.0,0.3509933774834437,1.0,0.9137931034482758
0.0876996233245527,0.10599885806412969,138.40955336594962,0.2924427256530346,0,0,0,0,0,0,0,0,0,0,0,0.0,0.3576158940397351,1.0,0.9310344827586207
0.08027651564608168,0.09281361278353721,138.41505016127107,0.29538149804390956,0,0,0,0,0,0,0,0,0,0,0,0.0,0.36423841059602646,1.0,0.9482758620689656
0.0731429677828322,0.08106016212074953,138.4206197723698,0.2983457846025085,0,0,0,0,0,0,0,0,0,0,0,0.0,0.37086092715231794,1.0,0.9655172413793104
0.06620935886985535,0.07095499997425703,138.4262611899387,0.3013355853288312,0,0,0,0,0,0,0,0,0,0,0,0.0,0.37748344370860926,1.0,0.9827586206896552
0.05899540503091618,0.06251948691832958,138.43197340456314,0.30435090022287786,0,0,0,0,0,0,0,0,0,0,0,0.0,0.38410596026490074,1.0,1.0
0.0518221542176274,0.0555766322962753,138.43775540671012,0.30739172928464836,0,0,0,0,0,0,0,0,0,0,1,0.0,0.3907284768211921,0.0,0.0
0.04565551207835351,0.049803103693868936,138.44360618671823,0.31045807251414287,0,0,0,0,0,0,0,0,0,0,0,0.0,0.3973509933774834,0.0,0.006451612903225807
0.04103258567059758,0.04484445086151707,138.44952473478722,0.31354992991136116,0,0,0,0,0,0,0,0,0,0,0,0.0,0.4039735099337749,0.0,0.012903225806451615
0.03769642402405191,0.040433623963298214,138.4555100409682,0.3166673014763034,0,0,0,0,0,0,0,0,0,0,0,0.0,0.4105960264900662,0.0,0.01935483870967742
0.03505160335617227,0.03642756649730968,138.4615610951536,0.3198101872089695,0,0,0,0,0,0,0,0,0,0,0,0.0,0.4172185430463576,0.0,0.02580645161290323
0.03261746141249634,0.03275947333883479,138.46767688706748,0.32297858710935945,0,0,0,0,0,0,0,0,0,0,0,0.0,0.42384105960264906,0.0,0.03225806451612903
0.0302092511667311,0.029382165111805185,138.47385640625586,0.32617250117747343,0,0,0,0,0,0,0,0,0,0,0,0.0,0.4304635761589404,0.0,0.03870967741935484
0.027918696642972758,0.026250469039134108,138.48009864207734,0.32939192941331125,0,0,0,0,0,0,0,0,0,0,0,0.0,0.43708609271523186,0.0,0.04516129032258064
0.025827204497997622,0.0233217146786065,138.48640258369377,0.33263687181687296,0,0,0,0,0,0,0,0,0,0,0,0.0,0.4437086092715232,0.0,0.05161290322580646
0.02366310686973823,0.02054473967853652,138.4927672200611,0.3359073283881584,0,0,0,0,0,0,0,0,0,0,0,0.0,0.45033112582781454,0.0,0.058064516129032254
0.020943224743309917,0.017847630891414286,138.49919153992025,0.3392032991271679,0,0,0,0,0,0,0,0,0,0,0,0.0,0.456953642384106,0.0,0.06451612903225806
0.017589103013189823,0.015146571540517306,138.50567453178851,0.34252478403390124,0,0,0,0,0,0,0,0,0,0,0,0.0,0.4635761589403974,0.0,0.07096774193548387
0.014155583258315315,0.012366592147720594,138.51221518395047,0.3458717831083585,0,0,0,0,0,0,0,0,0,0,0,0.0,0.4701986754966887,0.0,0.07741935483870968
0.011216197646892566,0.00944580945187518,138.51881248444974,0.34924429635053966,0,0,0,0,0,0,0,0,0,0,0,0.0,0.4768211920529802,0.0,0.08387096774193549
0.008782024204784822,0.0063199319607728285,138.52546542108033,0.35264232376044463,0,0,0,0,0,0,0,0,0,0,0,0.0,0.4834437086092715,0.0,0.09032258064516129
0.006605603530906411,0.0029148304713213103,138.53217298137847,0.35606586533807355,0,0,0,0,0,0,0,0,0,0,0,0.0,0.49006622516556286,0.0,0.0967741935483871
0.004694929185584958,-0.0008309880800969815,138.5389341526144,0.3595149210834264,0,0,0,0,0,0,0,0,0,0,0,0.0,0.49668874172185434,0.0,0.10322580645161292
0.002980240359251916,-0.004923142465849114,138.54574792178445,0.36298949099650313,0,0,0,0,0,0,0,0,0,0,0,0.0,0.5033112582781457,0.0,0.10967741935483871
0.000614546799481083,-0.009275205215070793,138.55261327560314,0.3664895750773037,0,0,0,0,0,0,0,0,0,0,0,0.0,0.5099337748344371,0.0,0.11612903225806451
-0.0036910919736649066,-0.01370165486424424,138.5595292004955,0.3700151733258282,0,0,0,0,0,0,0,0,0,0,0,0.0,0.5165562913907285,0.0,0.12258064516129032
-0.010339365277154997,-0.017947633367035257,138.56649468258945,0.37356628574207656,0,0,0,0,0,0,0,0,0,0,0,0.0,0.5231788079470199,0.0,0.12903225806451613
-0.01837799618614939,-0.021748422948992693,138.57350870770864,0.3771429123260488,0,0,0,0,0,0,0,0,0,0,0,0.0,0.5298013245033113,0.0,0.13548387096774195
-0.026810516759208005,-0.024887993429280785,138.58057026136484,0.38074505307774503,0,0,0,0,0,0,0,0,0,0,0,0.0,0.5364238410596026,0.0,0.14193548387096774
-0.0357823564899522,-0.027212261196792563,138.58767832875108,0.38437270799716505,0,0,0,0,0,0,0,0,0,0,0,0.0,0.543046357615894,0.0,0.14838709677419354
-0.04541888352341981,-0.028589608836943392,138.59483189473457,0.3880258770843091,0,0,0,0,0,0,0,0,0,0,0,0.0,0.5496688741721855,0.0,0.15483870967741936
-0.05348696936832245,-0.028876298356763377,138.60202994385,0.3917045603391769,0,0,0,0,0,0,0,0,0,0,0,0.0,0.5562913907284768,0.0,0.16129032258064518
-0.05546206469700993,-0.02795111716852814,138.6092714602927,0.39540875776176854,0,0,0,0,0,0,0,0,0,0,0,0.0,0.5629139072847682,0.0,0.16774193548387098
-0.04795821995154933,-0.025808379848252502,138.61655542791223,0.39913846935208425,0,0,0,0,0,0,0,0,0,0,0,0.0,0.5695364238410596,0.0,0.17419354838709677
-0.03204604734830083,-0.022629563161758563,138.62388083020602,0.40289369511012374,0,0,0,0,0,0,0,0,0,0,0,0.0,0.5761589403973509,0.0,0.18064516129032257
-0.013007500965747827,-0.018770263735842417,138.63124665031302,0.4066744350358872,0,0,0,0,0,0,0,0,0,0,0,0.0,0.5827814569536424,0.0,0.1870967741935484
0.0028875341101130183,-0.014668496058572181,138.63865187100782,0.4104806891293744,0,0,0,0,0,0,0,0,0,0,0,0.0,0.5894039735099338,0.0,0.1935483870967742
0.011767334664226577,-0.01072681398732722,138.64609547469453,0.4143124573905856,0,0,0,0,0,0,0,0,0,0,0,0.0,0.5960264900662252,0.0,0.2
0.013744097392143599,-0.007226202605904331,138.65357644340102,0.4181697398195207,0,0,0,0,0,0,0,0,0,0,0,0.0,0.6026490066225165,0.0,0.20645161290322583
0.011901468461985329,-0.004308153241051785,138.66109375877343,0.4220525364161797,0,0,0,0,0,0,0,0,0,0,0,0.0,0.609271523178808,0.0,0.2129032258064516
0.00943631105146273,-0.002014341308953648,138.66864640207046,0.4259608471805626,0,0,0,0,0,0,0,0,0,0,0,0.0,0.6158940397350994,0.0,0.21935483870967742
0.0075977431840322796,-0.0003301751194105528,138.67623335415823,0.4298946721126693,0,0,0,0,0,0,0,0,0,0,0,0.0,0.6225165562913907,0.0,0.2258064516129032
0.006126694108137162,0.0008105055790224883,138.68385359550496,0.4338540112124999,0,0,0,0,0,0,0,0,0,0,0,0.0,0.6291390728476821,0.0,0.23225806451612901
0.004701321145211471,0.001549945300412476,138.69150610617598,0.4378388644800545,0,0,0,0,0,0,0,0,0,0,0,0.0,0.6357615894039735,0.0,0.23870967741935484
0.0033316230010828774,0.0021216846681269036,138.69918986582877,0.441849231915333,0,0,0,0,0,0,0,0,0,0,0,0.0,0.642384105960265,0.0,0.24516129032258063
0.001912831971667395,0.002831740410210573,138.70690385370838,0.4458851135183353,0,0,0,0,0,0,0,0,0,0,0,0.0,0.6490066225165563,0.0,0.25161290322580643
9.571640075267001e-05,0.004004682841321689,138.71464704864255,0.4499465092890615,0,0,0,0,0,0,0,0,0,0,0,0.0,0.6556291390728478,0.0,0.25806451612903225
